time	plasma_radioactivity	metabolite_parent_fraction	whole_blood_radioactivity
1858.8	4702.9649028154545	0.7574102964118565	9019.79855541581
3642.0	3198.99878730323	0.597682119205298	7098.893317849531
5440.2	3202.5526874432676	0.6888888888888889	5215.426197070961
