time	plasma_radioactivity	metabolite_parent_fraction	whole_blood_radioactivity
663.0	6306.828894745459	0.9650145772594754	23700.700415352072
1849.8	4333.537442498099	0.7415222305953278	13771.694338383219
3705.0	4041.2895859421237	0.6617405582922824	9870.521167343688
5488.8	3906.5475396229103	0.6875	7305.195161670154
