frame_start	frame_end	highbinding	left_cerebral_white_matter	left_cerebellum_white_matter	left_cerebellum_cortex	left_thalamus	left_caudate	left_putamen	left_pallidum	brain_stem	left_hippocampus	left_amygdala	csf	left_accumbens_area	left_ventraldc	left_choroid_plexus	right_cerebral_white_matter	right_cerebellum_white_matter	right_cerebellum_cortex	right_thalamus	right_caudate	right_putamen	right_pallidum	right_hippocampus	right_amygdala	right_accumbens_area	right_ventraldc	right_choroid_plexus	aircavity	skull	vermis	pons	csf_extracerebral	head_extracerebral	ctx_lh_bankssts	ctx_lh_caudalanteriorcingulate	ctx_lh_caudalmiddlefrontal	ctx_lh_cuneus	ctx_lh_entorhinal	ctx_lh_fusiform	ctx_lh_inferiorparietal	ctx_lh_inferiortemporal	ctx_lh_isthmuscingulate	ctx_lh_lateraloccipital	ctx_lh_lateralorbitofrontal	ctx_lh_lingual	ctx_lh_medialorbitofrontal	ctx_lh_middletemporal	ctx_lh_parahippocampal	ctx_lh_paracentral	ctx_lh_parsopercularis	ctx_lh_parsorbitalis	ctx_lh_parstriangularis	ctx_lh_pericalcarine	ctx_lh_postcentral	ctx_lh_posteriorcingulate	ctx_lh_precentral	ctx_lh_precuneus	ctx_lh_rostralanteriorcingulate	ctx_lh_rostralmiddlefrontal	ctx_lh_superiorfrontal	ctx_lh_superiorparietal	ctx_lh_superiortemporal	ctx_lh_supramarginal	ctx_lh_frontalpole	ctx_lh_temporalpole	ctx_lh_transversetemporal	ctx_lh_insula	ctx_rh_bankssts	ctx_rh_caudalanteriorcingulate	ctx_rh_caudalmiddlefrontal	ctx_rh_cuneus	ctx_rh_entorhinal	ctx_rh_fusiform	ctx_rh_inferiorparietal	ctx_rh_inferiortemporal	ctx_rh_isthmuscingulate	ctx_rh_lateraloccipital	ctx_rh_lateralorbitofrontal	ctx_rh_lingual	ctx_rh_medialorbitofrontal	ctx_rh_middletemporal	ctx_rh_parahippocampal	ctx_rh_paracentral	ctx_rh_parsopercularis	ctx_rh_parsorbitalis	ctx_rh_parstriangularis	ctx_rh_pericalcarine	ctx_rh_postcentral	ctx_rh_posteriorcingulate	ctx_rh_precentral	ctx_rh_precuneus	ctx_rh_rostralanteriorcingulate	ctx_rh_rostralmiddlefrontal	ctx_rh_superiorfrontal	ctx_rh_superiorparietal	ctx_rh_superiortemporal	ctx_rh_supramarginal	ctx_rh_frontalpole	ctx_rh_temporalpole	ctx_rh_transversetemporal	ctx_rh_insula	reference
0	30	120.0524978637695	91.43598175048828	81.22201538085938	112.0696105957031	83.94910430908203	79.03634643554688	167.9054718017578	70.18939208984375	144.0852966308594	178.1991271972656	151.6649169921875	67.86495208740234	139.5100250244141	147.2128448486328	26.73613357543945	92.65827941894531	120.7099838256836	119.6549072265625	146.8663940429688	84.34809112548828	85.12281036376953	33.58816909790039	112.9310684204102	130.5206604003906	199.1143646240234	164.9132385253906	46.84881210327148	68.76934051513672	59.09896850585938	169.4638671875	111.4356231689453	114.2772598266602	61.39321517944336	118.3246612548828	221.3186950683594	59.84157943725586	108.4477920532227	153.9512786865234	131.0481872558594	77.86789703369141	91.04651641845703	88.2686767578125	74.95794677734375	143.12939453125	115.8498840332031	173.6219482421875	95.76856994628906	129.4470977783203	149.1614837646484	182.5876007080078	155.1468658447266	74.41486358642578	109.964714050293	104.4917449951172	146.2513580322266	90.89608764648438	67.50538635253906	166.7787170410156	93.43161010742188	116.4541015625	74.09076690673828	156.4554901123047	91.32865905761719	103.6853561401367	124.3154754638672	118.4317245483398	250.4376525878906	88.66086578369141	123.0816345214844	102.1045074462891	142.9328155517578	308.3637390136719	140.7295379638672	81.06941223144531	88.55739593505859	115.4340744018555	87.56900024414062	133.2989349365234	124.261474609375	184.2105255126953	102.3084411621094	167.8331909179688	87.60968017578125	227.7205047607422	250.1060638427734	170.3052062988281	127.641227722168	90.04497528076172	120.4328994750977	105.4348297119141	104.501579284668	183.5283966064453	115.2608032226562	129.3992309570312	76.18865203857422	171.1389617919922	121.5553436279297	122.1313171386719	116.1994018554688	90.94284820556641	191.6351165771484	117.2030220031738
30	60	9663.7080078125	5562.55078125	6004.103515625	8114.501953125	7549.54345703125	7696.74169921875	9751.3291015625	6968.07177734375	6585.986328125	7769.89208984375	7678.99169921875	6022.751953125	7660.53076171875	7005.35986328125	5675.98291015625	5607.3466796875	5767.27197265625	8506.0634765625	7664.15087890625	7362.72314453125	8343.9912109375	5775.31689453125	8144.03271484375	6829.5615234375	9786.521484375	7278.4130859375	5834.8505859375	2775.48779296875	2814.50537109375	7931.22509765625	6851.8359375	8139.4052734375	3059.351318359375	8451.7138671875	9635.8076171875	7827.41552734375	10636.986328125	7139.107421875	7779.4365234375	7732.49462890625	7405.57421875	9697.4599609375	7588.94287109375	9281.400390625	10175.671875	10492.732421875	7751.28271484375	8541.5615234375	8217.71484375	8991.83203125	8134.8486328125	9033.287109375	11148.3974609375	7115.97802734375	9363.79296875	7936.490234375	8659.4814453125	10379.6669921875	8323.2734375	8244.03125	7157.83056640625	8384.666015625	7792.62646484375	9194.7763671875	6792.38037109375	10635.07421875	10049.1611328125	8151.216796875	10379.3681640625	8392.037109375	10029.5625	7984.23193359375	7313.01123046875	7909.095703125	7183.287109375	9631.08203125	8106.83544921875	9591.8203125	9881.8662109375	10461.109375	8067.79931640625	8155.02734375	7472.1044921875	9427.767578125	9536.908203125	9081.2373046875	10868.7109375	7607.931640625	9254.6044921875	7522.9921875	8716.62890625	11761.197265625	8576.6337890625	8686.75	6693.28857421875	9046.8818359375	8043.3994140625	9803.4208984375	8019.7578125	12448.1728515625	10217.0244140625	8809.75537109375
60	90	24808.171875	14174.3212890625	14964.0576171875	20590.388671875	18995.1328125	19234.052734375	22927.955078125	17631.95703125	14922.0302734375	17169.4140625	17557.4296875	14594.5498046875	20382.587890625	16196.875	15116.6328125	14377.5048828125	15015.0283203125	21142.451171875	19795.302734375	19148.35546875	23262.17578125	16884.279296875	16688.19921875	16428.365234375	17392.806640625	15715.1435546875	14639.275390625	5600.73095703125	6477.4541015625	21740.1796875	16800.94921875	17615.23046875	6897.76806640625	20056.873046875	21298.3359375	20352.35546875	27110.943359375	17805.2578125	18824.822265625	20199.767578125	18947.3359375	21687.84375	20482.490234375	21732.060546875	23231.154296875	22571.09375	19455.369140625	17677.01171875	19550.619140625	21845.2265625	20646.767578125	21780.740234375	27118.529296875	19117.41796875	22110.0625	19748.451171875	22420.8828125	22297.791015625	21354.990234375	20816.201171875	18908.4453125	20936.828125	20212.556640625	22591.25390625	17112.43359375	26989.357421875	22186.34375	22804.7734375	22307.50390625	21347.361328125	26246.830078125	18809.43359375	18294.537109375	19950.626953125	18191.806640625	23051.689453125	21250.400390625	23036.03125	23476.8125	23492.740234375	20186.22265625	18019.642578125	19569.23828125	23188.904296875	21550.896484375	22267.51953125	27958.087890625	19361.845703125	22724.66796875	19911.20703125	21576.5546875	24086.568359375	22549.1015625	22075.869140625	17970.873046875	20451.478515625	20101.3828125	21363.216796875	18820.416015625	26443.09765625	21458.4921875	22470.3408203125
90	120	31391.025390625	17592.23046875	18661.056640625	25125.904296875	23924.177734375	24752.869140625	28409.72265625	21849.27734375	17305.169921875	20536.2265625	18430.259765625	17422.08984375	22957.2265625	19362.814453125	16177.0693359375	17683.607421875	18921.09375	25399.9375	24282.3203125	23917.607421875	29226.03125	20006.93359375	19682.810546875	19677.01171875	22419.615234375	18745.1953125	16905.42578125	6190.71923828125	7655.986328125	26069.529296875	20186.880859375	19507.28515625	7948.3349609375	25326.33984375	23910.60546875	24873.232421875	33439.765625	21645.638671875	23253.279296875	24858.560546875	22988.119140625	25195.591796875	24995.2578125	26621.3203125	29482.19140625	27729.095703125	24171.599609375	21022.900390625	23790.28125	26311.40625	25136.7734375	27226.208984375	33699.90625	23572.384765625	27615.890625	24788.4375	27515.73828125	25800.740234375	26754.986328125	25003.044921875	23655.96875	24121.90625	24435.115234375	29594.0078125	21183.10546875	31147.134765625	25199.103515625	27180.033203125	24821.1953125	25910.224609375	32021.8515625	19826.76171875	23004.70703125	24985.177734375	22253.21875	26695.935546875	25950.46875	26990.98828125	28000.033203125	27994.017578125	24240.0078125	21633.10546875	24207.234375	27991.537109375	27354.599609375	26617.298828125	34834.78125	23715.83984375	26405.685546875	24094.76171875	26786.609375	27805.546875	27390.7734375	26353.9453125	22876.849609375	24224.65625	24511.42578125	27023.052734375	21887.5703125	30277.71484375	24243.896484375	27351.3125
120	150	32320.294921875	18202.669921875	18936.1015625	25595.296875	24621.62109375	25205.390625	30039.466796875	22384.546875	17383.90625	21119.154296875	19853.3828125	17343.078125	26577.78515625	19303.86328125	19409.05078125	18207.7734375	19278.48046875	25475.462890625	24234.595703125	25110.96875	29781.97265625	21778.546875	20740.52734375	19199.25390625	22991.8671875	19815.009765625	17489.80078125	5944.7861328125	7585.21484375	27415.6171875	20430.544921875	18832.623046875	7867.01220703125	25732.1796875	24501.556640625	26769.138671875	32764.607421875	21353.482421875	23658.84375	25325.673828125	23789.708984375	25061.154296875	25560.1640625	26877.61328125	29780.755859375	27248.19140625	24845.765625	21335.73046875	24300.537109375	26433.296875	26565.58203125	27436.71484375	36211.7109375	24080.400390625	26830.38671875	25268.31640625	27409.080078125	26670.009765625	27297.359375	26042.267578125	24266.107421875	24854.416015625	25381.40234375	28091.009765625	20410.255859375	31292.57421875	25276.068359375	25626.46875	25494.205078125	26743.955078125	32249.033203125	20666.615234375	22758.1796875	25417.84765625	22423.62109375	27632.818359375	26835.33203125	27303.91796875	28188.71875	27731.771484375	24811.201171875	20507.5703125	24350.490234375	27428.685546875	27365.986328125	27482.837890625	33384.37890625	24211.408203125	27336.43359375	25064.70703125	27186.828125	27730.388671875	28061.732421875	26288.744140625	23311.294921875	24196.828125	24689.08984375	27231.25390625	21522.92578125	29295.880859375	25997.876953125	27734.2314453125
150	180	32115.509765625	18026.60546875	19293.19921875	25384.48046875	23901.25390625	24908.41796875	30044.76171875	21619.505859375	17679.08203125	19668.0078125	19244.171875	17128.140625	24404.314453125	19784.228515625	15972.837890625	18109.123046875	18966.369140625	24905.27734375	24587.8046875	25064.974609375	29713.150390625	20858.20703125	19658.79296875	18534.650390625	24127.50390625	19192.92578125	17249.91015625	5670.81103515625	7580.0625	26677.64453125	20923.197265625	18270.8984375	7821.462890625	24952.76171875	23703.650390625	25987.94921875	32790.40625	20991.09765625	23399.798828125	24736.904296875	23795.9609375	24212.798828125	25849.642578125	26798.501953125	29645.326171875	26903.552734375	24369.51171875	22048.185546875	24170.6953125	26475.7421875	25735.40625	26433.259765625	35147.33203125	24208.64453125	26488.13671875	24967.189453125	27083.55859375	25790.998046875	26934.962890625	25365.248046875	23720.8515625	24107.53125	24935.609375	28378.314453125	20362.26171875	31543.513671875	25066.3046875	25425.388671875	24123.333984375	26744.423828125	30474.87109375	19451.861328125	22981.984375	25301.24609375	23267.951171875	25560.994140625	26771.099609375	27062.8359375	28572.841796875	27262.69140625	24621.380859375	20737.697265625	24206.37890625	27923.875	26926.345703125	27357.6640625	34372.984375	23712.9921875	26954.22265625	24541.66796875	26077.310546875	26125.626953125	27233.765625	25432.634765625	23488.466796875	23855.791015625	25070.884765625	25653.01171875	22313.17578125	30329.05859375	24889.173828125	27245.7734375
180	240	32000.99609375	17907.216796875	19056.775390625	24514.455078125	24056.375	24167.431640625	30172.482421875	22533.0625	17029.9375	20605.41796875	18854.99609375	16821.19921875	24866.962890625	18889.666015625	17322.41015625	17926.154296875	18923.51171875	24468.3203125	24163.4296875	24869.5078125	30071.26953125	21903.9921875	19862.763671875	18979.396484375	22948.3359375	18804.462890625	17339.8671875	5519.72802734375	7572.42431640625	26146.26953125	20428.197265625	17731.052734375	7834.2080078125	24476.671875	23663.681640625	25298.919921875	32335.626953125	20721.1171875	23168.490234375	24601.576171875	23198.9375	24795.251953125	25234.126953125	25991.716796875	28241.115234375	26754.912109375	23803.189453125	20816.78125	23313.234375	25646.021484375	24441.744140625	26171.59765625	33749.22265625	23412.837890625	26154.625	24351.376953125	26328.595703125	25526.16015625	26048.01171875	24667.498046875	23581.361328125	23776.07421875	24699.287109375	27093.984375	20106.625	31198.501953125	24352.951171875	25839.986328125	22982.142578125	25813.41796875	30834.3046875	18948.658203125	22365.048828125	24698.9921875	22132.02734375	24899.109375	26038.865234375	26629.998046875	27472.451171875	26702.64453125	24313.080078125	19585.326171875	24003.3125	26486.15625	26704.62890625	26278.451171875	34138.07421875	23622.248046875	26351.10546875	24124.0234375	26114.408203125	26097.669921875	27073.69140625	25212.83203125	23012.380859375	23468.572265625	24337.744140625	26200.57421875	21115.4296875	30115.64453125	24050.48046875	26549.021484375
240	300	30566.15625	17538.32421875	18897.103515625	23851.794921875	23754.603515625	23913.4609375	28725.615234375	22693.025390625	17363.025390625	20633.724609375	19390.41796875	16784.9921875	24849.0078125	18800.146484375	17868.712890625	17514.505859375	18565.267578125	23302.615234375	24265.943359375	23162.001953125	27933.283203125	21188.8125	20501.705078125	18557.080078125	23175.6484375	18637.9609375	17722.6484375	5585.90966796875	7548.17041015625	24429.357421875	20035.31640625	16874.19921875	7893.63916015625	24236.056640625	23399.041015625	23791.84765625	31333.962890625	18710.369140625	22685.287109375	23388.701171875	22371.33203125	22771.51953125	24417.576171875	25034.912109375	27735.603515625	24812.2734375	23150.828125	20769.619140625	22311.5078125	24226.498046875	23727.90625	24943.658203125	33685.5	22794.60546875	24576.419921875	23724.111328125	25727.52734375	23430.115234375	24816.822265625	23217.701171875	22486.578125	23224.16796875	23289.52734375	25240.32421875	20252.0625	28818.24609375	23256.951171875	24442.318359375	23075.5703125	24241.939453125	29534.509765625	19306.392578125	22107.298828125	23435.248046875	21813.62109375	24101.154296875	25691.923828125	25027.603515625	26521.615234375	25623.767578125	23106.3828125	19963.7734375	23695.556640625	25160.31640625	26028.4453125	25106.52734375	32900.61328125	22535.255859375	25413.31640625	22993.9921875	25028.037109375	24806.12890625	25351.80078125	23872.6484375	22146.80859375	22611.482421875	23100.0234375	25463.2421875	19874.912109375	26616.90234375	23429.177734375	25502.4951171875
300	360	29228.30078125	17118.14453125	18353.830078125	22854.6328125	23234.06640625	22581.7890625	27371.955078125	21242.87109375	16912.287109375	20270.65234375	19016.328125	16341.75	23452.322265625	18993.001953125	17984.01171875	17199.392578125	18158.048828125	22619.11328125	23313.46875	22384.701171875	27196.998046875	20859.265625	19911.44140625	18350.98828125	22543.462890625	18252.09375	17670.18359375	5515.64404296875	7582.0078125	23165.431640625	19464.376953125	16224.6474609375	7950.9892578125	22311.37109375	22533.09375	22563.388671875	30105.12109375	18271.462890625	21504.1640625	22476.65234375	21260.470703125	22167.947265625	23708.197265625	23435.0546875	27456.685546875	23374.2109375	22113.375	19533.037109375	21790.265625	22982.349609375	22338.326171875	24276.185546875	32204.0390625	22268.556640625	23313.59765625	22970.4296875	24693.220703125	23002.115234375	23896.2578125	22328.228515625	21827.521484375	22364.294921875	22782.25390625	23970.466796875	19832.3984375	27817.162109375	22867.708984375	22746.984375	22606.298828125	23030.8515625	28883.677734375	17986.576171875	21573.724609375	22715.3671875	20861.9609375	22668.05859375	24603.853515625	24589.462890625	26240.841796875	24537.55859375	22120.576171875	19412.947265625	22516.603515625	24546.98046875	24841.05078125	24281.279296875	31972.9609375	21809.537109375	24566.720703125	22209.662109375	24116.64453125	23339.474609375	24815.544921875	22840.12109375	21576.38671875	21937.056640625	22362.048828125	24709.875	20530.654296875	26499.86328125	22715.72265625	24573.65625
360	480	27918.20703125	16770.552734375	17868.4765625	21726.546875	22572.578125	21734.6484375	25976.77734375	20931.02734375	16657.6640625	20168.171875	19035.341796875	15983.3310546875	21734.091796875	18724.86328125	17520.15234375	16760.693359375	17702.154296875	21544.5234375	23315.201171875	21651.634765625	25278.296875	20101.775390625	20183.21875	18598.22265625	21288.2265625	18198.51171875	18242.150390625	5555.39404296875	7606.5634765625	22508.150390625	19552.740234375	15531.7255859375	8011.5546875	22067.580078125	21322.849609375	21902.115234375	29451.037109375	18008.212890625	21221.025390625	21439.123046875	20756.419921875	21306.806640625	23023.3046875	22781.384765625	26208.74609375	22705.37890625	21486.259765625	19428.36328125	21074.388671875	21740.24609375	22022.185546875	22846.419921875	31764.466796875	21031.720703125	22245.251953125	21814.6171875	23344.23046875	21365.853515625	22395.50390625	21238.486328125	20813.509765625	21383.3046875	21724.25	22895.052734375	18733.2578125	26716.271484375	21942.306640625	22545.6640625	21935.125	22262.4453125	27891.884765625	17628.318359375	20501.59375	21517.79296875	20138.365234375	22315.06640625	23647.2265625	23271.1484375	25632.57421875	23354.654296875	20980.986328125	19515.787109375	21249.84765625	22423.486328125	22985.93359375	22781.8671875	30885.798828125	21436.65625	22436.712890625	21400.744140625	22676.52734375	22667.529296875	23123.005859375	21597.666015625	20420.087890625	20993.357421875	21039.447265625	22838.859375	19350.55078125	25184.505859375	21913.939453125	23296.16015625
480	600	26441.98046875	16247.78515625	17422.251953125	20376.78125	21974.548828125	20288.328125	24678.201171875	19975.02734375	16483.611328125	19966.732421875	18088.796875	15572.498046875	21310.06640625	18910.703125	17354.091796875	16282.447265625	17082.515625	20203.3984375	22624.03125	20213.7109375	24821.97265625	20039.595703125	19837.3359375	18068.64453125	20192.3984375	18389.517578125	18535.41015625	5590.47314453125	7674.66162109375	21022.611328125	19354.16796875	14597.19140625	8070.14990234375	20751.185546875	20340.1328125	20402.923828125	28302.158203125	18166.474609375	19926.353515625	20063.115234375	19567.685546875	19755.5703125	22032.62890625	21362.78125	25388.173828125	21195.486328125	20323.83203125	18277.365234375	19561.736328125	20537.681640625	20815.025390625	21354.5390625	30941.9921875	19995.521484375	20700.365234375	20531.9765625	22220.5390625	19983.345703125	20933.158203125	19631.49609375	19899.755859375	20383.71484375	20493.2734375	21589.71875	18812.23828125	24465.994140625	20932.431640625	20739.080078125	20216.802734375	20411.75	26877.3984375	17266.140625	19926.0703125	20180.06640625	18996.353515625	20264.78125	22660.677734375	21654.92578125	24529.41796875	21727.767578125	19841.103515625	18760.125	20096.146484375	21206.5703125	22970.861328125	21288.044921875	30279.1640625	20230.65625	21467.4921875	20111.11328125	21308.8203125	20558.47265625	21552.66796875	19840.099609375	19398.392578125	20002.55859375	19857.982421875	21220.712890625	18533.18359375	23853.484375	20987.203125	21758.0185546875
600	900	23763.00390625	15638.3505859375	16601.939453125	18740.7890625	21110.20703125	18729.66015625	22227.951171875	19753.599609375	15984.306640625	19710.642578125	17861.89453125	15089.689453125	19762.73046875	18251.83203125	17454.72265625	15599.408203125	16406.099609375	18612.517578125	21628.935546875	18203.8046875	21929.083984375	19227.060546875	19874.06640625	17156.50390625	19579.990234375	18170.912109375	17660.015625	5564.0986328125	7773.02880859375	19376.552734375	19010.599609375	13510.66796875	8241.681640625	18977.19921875	18563.716796875	18480.01953125	26959.90625	16553.94921875	18697.66015625	18768.6796875	18113.640625	18210.724609375	20922.005859375	19436.681640625	24113.052734375	19395.115234375	18849.6484375	17006.166015625	18501.947265625	18895.0390625	18996.908203125	19495.375	29103.388671875	18846.283203125	18806.134765625	19378.015625	20385.310546875	18487.59375	18908.56640625	17901.376953125	18634.259765625	18956.98828125	18780.451171875	19028.578125	17134.103515625	22779.279296875	19510.0625	19269.486328125	18298.162109375	18245.853515625	25430.0859375	16449.609375	18535.94921875	18445.259765625	17714.958984375	18542.185546875	21295.66796875	19911.638671875	23274.068359375	19749.39453125	18180.287109375	17328.751953125	18538.357421875	19094.77734375	19997.890625	19361.341796875	28847.716796875	18905.482421875	19385.96484375	18406.537109375	19879.271484375	19248.021484375	19492.0234375	17881.484375	17924.5234375	18408.94921875	18289.578125	19418.861328125	18005.671875	21751.685546875	19373.318359375	19902.458984375
900	1200	21087.015625	14965.3212890625	15757.6123046875	16773.8359375	20094.0390625	16544.486328125	20191.015625	18604.9921875	15707.9375	19664.505859375	17340.34765625	14443.8740234375	17997.357421875	18002.833984375	17386.37890625	14916.20703125	15430.0771484375	16428.751953125	20063.224609375	16255.3876953125	19435.173828125	18002.216796875	18818.763671875	16550.833984375	17335.986328125	17384.09765625	18020.1875	5630.0693359375	7940.85205078125	17586.47265625	18405.279296875	12392.5126953125	8404.6142578125	17386.076171875	16809.1484375	16552.31640625	25157.51953125	15523.5966796875	17384.619140625	16980.185546875	16555.0234375	16312.572265625	19352.111328125	17732.248046875	22568.2265625	17646.494140625	17043.37109375	15896.2080078125	16879.322265625	16758.388671875	17256.177734375	17540.244140625	27945.96484375	17373.47265625	16959.95703125	17535.69140625	18559.34765625	16750.775390625	16896.70703125	15882.6181640625	16964.431640625	17313.26953125	17210.865234375	17611.21484375	16009.015625	20427.798828125	17959.748046875	17820.900390625	16683.4453125	16134.541015625	23733.177734375	15493.6806640625	17147.599609375	16825.994140625	15987.2744140625	17018.126953125	19903.123046875	18165.75390625	21911.513671875	17664.814453125	16363.7763671875	16022.9345703125	16732.0078125	16915.373046875	18054.115234375	17572.01171875	26992.96875	17271.115234375	17089.259765625	16937.998046875	18199.279296875	17011.818359375	17535.638671875	15899.8955078125	16643.140625	16924.19921875	16321.86328125	17408.97265625	16326.0341796875	19884.333984375	17758.314453125	17500.7177734375
1200	1500	19452.23828125	14457.763671875	15145.96484375	15256.646484375	19120.912109375	15527.9736328125	18653.533203125	18346.458984375	14957.18359375	19010.69921875	16374.244140625	14118.234375	17212.203125	17410.548828125	17186.66015625	14335.5078125	14643.9228515625	14967.2294921875	19418.703125	15223.00390625	17908.205078125	17270.515625	18987.7109375	16383.7041015625	16428.3359375	16642.16015625	17383.205078125	5535.01123046875	8086.49267578125	15568.7939453125	17972.88671875	11563.3076171875	8563.2822265625	16396.216796875	15324.8330078125	15032.857421875	23633.3359375	15117.18359375	16045.2119140625	15492.2421875	15197.1533203125	15008.4169921875	18199.810546875	16498.298828125	21346.775390625	16101.7041015625	15743.2734375	14925.783203125	15348.658203125	15398.7841796875	15532.3310546875	15722.6572265625	26366.90234375	16245.673828125	15389.013671875	16521.13671875	17201.1171875	15446.09375	15550.9609375	14462.634765625	15648.8388671875	16233.14453125	15952.939453125	16014.2958984375	14997.8173828125	19472.2890625	16855.126953125	16455.796875	15916.6259765625	14483.765625	22390.052734375	13937.4716796875	15926.3623046875	15345.322265625	14695.9560546875	15242.515625	18597.44140625	16488.224609375	20558.87109375	16029.123046875	14921.189453125	14694.5517578125	15623.994140625	15190.5029296875	16292.7734375	16294.419921875	25259.6640625	16138.1533203125	15952.828125	15555.41015625	16940.53515625	15658.1484375	15996.6015625	14347.291015625	15270.1376953125	15479.515625	15226.470703125	15979.236328125	15403.1240234375	18099.720703125	16544.484375	15784.67236328125
1500	1800	17630.955078125	13898.8681640625	14424.4755859375	13909.697265625	18278.6875	13862.162109375	17273.00390625	17200.43359375	14104.97265625	18438.62890625	15552.9306640625	13641.27734375	16368.5439453125	16755.5625	18310.443359375	13831.8486328125	13914.5107421875	13676.673828125	18279.158203125	13912.02734375	16502.923828125	16326.1259765625	18048.564453125	15846.345703125	14843.111328125	16101.876953125	17200.66796875	5681.60302734375	8288.7998046875	14072.0966796875	17504.4296875	10910.560546875	8632.6337890625	15120.6953125	14211.662109375	14116.5009765625	22229.802734375	13882.751953125	14822.15234375	14484.447265625	14039.7919921875	13937.9794921875	16762.078125	15056.6083984375	19996.19921875	14701.5546875	14644.9189453125	13651.705078125	14153.546875	14056.4501953125	14241.4404296875	14564.4990234375	24294.380859375	14985.7919921875	14324.0068359375	15563.6103515625	16081.400390625	14491.1943359375	14285.5419921875	13266.1259765625	14635.888671875	15134.7783203125	14419.6162109375	14542.5703125	13403.5341796875	17742.7890625	15722.0546875	14903.6904296875	14403.140625	13521.0576171875	21252.6875	12934.65625	14632.6689453125	13859.123046875	13314.185546875	14303.025390625	17164.62109375	15198.7568359375	19323.03515625	14577.990234375	13691.9931640625	13961.3466796875	14655.46484375	14299.27734375	14574.69140625	14616.9306640625	23616.255859375	14868.75	14492.8662109375	14718.958984375	15512.3251953125	14161.078125	14598.3095703125	13262.826171875	13987.94921875	14346.73828125	13891.5185546875	14711.634765625	14010.9931640625	17047.158203125	15327.873046875	14281.8134765625
1800	2100	16057.9375	13331.9443359375	14030.68359375	12942.4140625	16861.8046875	12599.3095703125	15499.0048828125	16285.5029296875	13304.9658203125	17533.564453125	15004.646484375	13177.1240234375	15201.6044921875	15931.7646484375	15781.7255859375	13305.7705078125	13615.904296875	12606.509765625	17089.150390625	13489.3388671875	15663.7421875	16133.93359375	16890.322265625	15163.35546875	14226.5478515625	15186.892578125	16392.486328125	5797.17626953125	8553.806640625	13057.6669921875	16666.734375	10387.224609375	8654.98828125	14367.802734375	12739.8955078125	13014.2197265625	21315.564453125	13062.404296875	13725.1533203125	13334.1044921875	12789.0830078125	12765.654296875	15700.4580078125	13716.3203125	18811.724609375	13602.0673828125	13534.923828125	12838.1845703125	12828.552734375	13487.841796875	13856.6435546875	14236.8603515625	23235.611328125	14060.5859375	12831.55859375	14444.7626953125	14937.6650390625	13416.5732421875	13429.56640625	12098.3779296875	13895.2666015625	14119.884765625	13667.6396484375	13180.615234375	12890.1630859375	16357.09765625	14796.48046875	13944.501953125	13353.564453125	12317.0400390625	19793.693359375	12486.0927734375	13497.4501953125	12802.6806640625	12015.7177734375	13377.658203125	15966.142578125	13927.5986328125	17574.45703125	13461.8310546875	12627.0390625	12599.189453125	13286.79296875	13011.0966796875	13569.869140625	13175.8515625	22059.9140625	13529.1162109375	13621.2060546875	13668.4677734375	14757.5517578125	13715.9521484375	13554.40234375	12284.724609375	12783.0966796875	13453.0888671875	12650.5498046875	14311.5888671875	13336.087890625	14603.4365234375	14160.1748046875	13108.236328125
2100	2400	15302.025390625	12840.8984375	13518.919921875	12052.197265625	16152.177734375	12641.8193359375	15372.41796875	17276.970703125	12847.3076171875	16593.95703125	15119.7939453125	13332.509765625	13875.82421875	15053.3193359375	16156.7080078125	12815.150390625	13019.01171875	11779.61328125	16261.009765625	12604.599609375	14700.07421875	15674.0380859375	16270.51171875	14370.892578125	14434.98046875	14970.435546875	16020.5302734375	5716.48779296875	8372.5205078125	12373.943359375	16114.4912109375	10101.919921875	8769.2646484375	13402.375	11853.8544921875	12322.7529296875	20826.267578125	12729.7587890625	12491.619140625	12566.6826171875	11253.98828125	11979.330078125	14489.5576171875	12976.3271484375	17256.701171875	12750.73046875	12171.85546875	11612.3681640625	11749.171875	12189.822265625	12705.96484375	13144.9765625	21886.78125	12860.2353515625	11990.5986328125	13413.861328125	14183.884765625	12994.0849609375	12628.625	11294.294921875	13251.3525390625	13415.943359375	12629.044921875	12545.08984375	11568.1591796875	15420.6669921875	13913.095703125	13202.861328125	11555.8720703125	11989.7236328125	19008.98046875	11505.306640625	12257.919921875	12464.4326171875	11038.94140625	12335.796875	15349.228515625	13089.4228515625	16051.3251953125	12649.7548828125	12022.484375	11677.9384765625	11769.552734375	12313.59375	12625.9814453125	12698.77734375	20870.517578125	13109.9443359375	12328.4326171875	12905.2314453125	13795.91015625	12484.3896484375	12766.3701171875	11335.0107421875	12466.6904296875	12736.5224609375	12522.974609375	12751.630859375	12444.78125	14427.4716796875	13924.50390625	12150.50048828125
