time	plasma_radioactivity	metabolite_parent_fraction	whole_blood_radioactivity
178.20000000000002	13936.016227169848	0.989888764134563	17532.369269643983
298.2	9440.415337449791	0.981172667224858	14436.935852453478
601.1999999999999	10474.263105853302	0.9716063562217407	11119.08427286232
913.2	9373.115376870997	0.9650118553645526	9257.255485386771
1825.2	3065.157554165901	0.8950180888844634	4983.115238303031
2878.2	3561.0312022787602	0.9203532552885602	4745.376759673062
3694.7999999999997	4014.42441005338	0.9301413294642377	4143.210818356093
5482.799999999999	5359.329313327172	0.9763533789461049	3111.787246816249
7255.8	2863.3083348509113	1.0	2346.5516366397537
