time	plasma_radioactivity	metabolite_parent_fraction	whole_blood_radioactivity
637.8000000000001	5001.025883835075	0.9325389198539304	15177.635434468242
1857.0	4903.685350708242	0.7982319292771711	11731.796161222825
3655.2000000000003	4752.409738529165	0.6531862745098038	7983.035176814479
5497.799999999999	4594.796852057975	0.5421052631578948	6205.761226070969
