frame_start	frame_end	highbinding	left_cerebral_white_matter	left_cerebellum_white_matter	left_cerebellum_cortex	left_thalamus	left_caudate	left_putamen	left_pallidum	brain_stem	left_hippocampus	left_amygdala	csf	left_accumbens_area	left_ventraldc	left_choroid_plexus	right_cerebral_white_matter	right_cerebellum_white_matter	right_cerebellum_cortex	right_thalamus	right_caudate	right_putamen	right_pallidum	right_hippocampus	right_amygdala	right_accumbens_area	right_ventraldc	right_choroid_plexus	aircavity	skull	vermis	pons	csf_extracerebral	head_extracerebral	ctx_lh_bankssts	ctx_lh_caudalanteriorcingulate	ctx_lh_caudalmiddlefrontal	ctx_lh_cuneus	ctx_lh_entorhinal	ctx_lh_fusiform	ctx_lh_inferiorparietal	ctx_lh_inferiortemporal	ctx_lh_isthmuscingulate	ctx_lh_lateraloccipital	ctx_lh_lateralorbitofrontal	ctx_lh_lingual	ctx_lh_medialorbitofrontal	ctx_lh_middletemporal	ctx_lh_parahippocampal	ctx_lh_paracentral	ctx_lh_parsopercularis	ctx_lh_parsorbitalis	ctx_lh_parstriangularis	ctx_lh_pericalcarine	ctx_lh_postcentral	ctx_lh_posteriorcingulate	ctx_lh_precentral	ctx_lh_precuneus	ctx_lh_rostralanteriorcingulate	ctx_lh_rostralmiddlefrontal	ctx_lh_superiorfrontal	ctx_lh_superiorparietal	ctx_lh_superiortemporal	ctx_lh_supramarginal	ctx_lh_frontalpole	ctx_lh_temporalpole	ctx_lh_transversetemporal	ctx_lh_insula	ctx_rh_bankssts	ctx_rh_caudalanteriorcingulate	ctx_rh_caudalmiddlefrontal	ctx_rh_cuneus	ctx_rh_entorhinal	ctx_rh_fusiform	ctx_rh_inferiorparietal	ctx_rh_inferiortemporal	ctx_rh_isthmuscingulate	ctx_rh_lateraloccipital	ctx_rh_lateralorbitofrontal	ctx_rh_lingual	ctx_rh_medialorbitofrontal	ctx_rh_middletemporal	ctx_rh_parahippocampal	ctx_rh_paracentral	ctx_rh_parsopercularis	ctx_rh_parsorbitalis	ctx_rh_parstriangularis	ctx_rh_pericalcarine	ctx_rh_postcentral	ctx_rh_posteriorcingulate	ctx_rh_precentral	ctx_rh_precuneus	ctx_rh_rostralanteriorcingulate	ctx_rh_rostralmiddlefrontal	ctx_rh_superiorfrontal	ctx_rh_superiorparietal	ctx_rh_superiortemporal	ctx_rh_supramarginal	ctx_rh_frontalpole	ctx_rh_temporalpole	ctx_rh_transversetemporal	ctx_rh_insula	reference
0	30	434.2977905273438	289.227294921875	242.0937347412109	366.5325317382812	358.3330993652344	308.7796020507812	437.16943359375	470.2481994628906	380.3214111328125	364.6319885253906	377.2628173828125	233.3410186767578	236.5590209960938	520.4965209960938	310.6784057617188	299.7052001953125	318.0218811035156	367.1972351074219	355.3692321777344	326.9792785644531	500.7697448730469	311.1969909667969	541.9918823242188	425.4826965332031	623.7071533203125	335.8583679199219	294.5263366699219	184.5264129638672	208.4258728027344	423.5320129394531	418.6376647949219	468.0916748046875	130.3167419433594	219.1639251708984	716.7471313476562	367.4788818359375	485.0806579589844	302.9999389648438	333.1465759277344	352.9470520019531	296.0429382324219	464.2769775390625	346.0698547363281	451.3665161132812	420.8818359375	579.8504028320312	296.0722351074219	376.9546813964844	316.5442504882812	453.7061767578125	332.1318969726562	588.3213500976562	401.8777465820312	370.2340698242188	452.8172302246094	365.4349365234375	386.7531433105469	548.18798828125	347.7027893066406	417.3239440917969	293.3497314453125	388.201171875	448.4189453125	498.2911071777344	486.3592224121094	597.2821044921875	660.5552368164062	302.8464050292969	678.6349487304688	307.0785827636719	509.3329772949219	568.675537109375	361.1326293945312	362.1034851074219	373.4519653320312	492.3836364746094	354.6792907714844	437.7793579101562	454.3242797851562	429.1557922363281	359.9683837890625	465.4316101074219	435.7552185058594	653.8541259765625	528.3846435546875	452.921875	489.4577331542969	411.8607788085938	489.384033203125	372.8471984863281	455.9898376464844	756.8533935546875	359.0911560058594	421.5873718261719	332.5755615234375	493.0496215820312	449.5155944824219	420.9632873535156	292.5487060546875	665.8801879882812	604.1286010742188	362.536376953125
30	60	9246.1318359375	5294.44580078125	5729.63525390625	7326.9140625	6831.75390625	6970.80078125	8570.083984375	6183.90283203125	5521.3349609375	6578.82080078125	6937.171875	4134.56103515625	7976.3916015625	6697.02001953125	5505.482421875	5311.76611328125	5659.3076171875	7512.63916015625	7682.58740234375	6610.02392578125	9096.6416015625	6504.443359375	7319.14697265625	5492.1748046875	6514.1142578125	6234.1650390625	5259.6318359375	1964.113403320312	2738.44287109375	7519.67138671875	6131.27783203125	7549.20263671875	1636.192504882812	6514.66064453125	7796.0615234375	7838.8974609375	8428.623046875	6054.47314453125	7008.5263671875	7369.7841796875	6422.29296875	8027.2890625	7322.4384765625	7864.94482421875	7921.93212890625	7945.6796875	6819.31298828125	6417.3935546875	6609.83349609375	7994.92626953125	6983.48095703125	8274.07421875	9085.62109375	7383.09521484375	8543.154296875	7108.009765625	8104.2109375	7470.26708984375	7885.2578125	7373.833984375	6406.71044921875	6846.140625	7761.20703125	8181.7470703125	5669.01220703125	9506.619140625	8921.958984375	7615.78662109375	8814.7109375	7114.60205078125	8438.337890625	7025.5625	6753.099609375	7469.5048828125	6532.712890625	8877.6064453125	7321.673828125	7481.673828125	8091.03271484375	8041.99072265625	6973.248046875	6759.90087890625	7912.97265625	8520.4013671875	7586.87255859375	7542.2587890625	9073.328125	7838.6669921875	9862.8154296875	7496.689453125	8058.89208984375	9587.5703125	7829.55224609375	7687.6220703125	6652.7080078125	7547.94775390625	8011.6328125	7529.6708984375	5069.67333984375	9461.3955078125	7474.69384765625	7822.3935546875
60	90	20402.779296875	11303.2412109375	11985.83984375	15691.58984375	15942.5234375	16045.15625	19041.38671875	13812.4033203125	10709.5078125	12675.275390625	13474.20703125	8405.935546875	16306.46484375	12857.001953125	10655.546875	11447.6904296875	12336.771484375	15850.1650390625	16723.302734375	14628.8173828125	17527.90625	12026.796875	13394.6494140625	11288.1845703125	15192.15625	13560.3681640625	11606.69140625	3186.285888671875	4812.17041015625	14947.2978515625	13406.4658203125	14136.140625	3117.033203125	15809.3662109375	14804.216796875	16477.17578125	17756.875	12361.9736328125	14777.8828125	15704.091796875	14274.25390625	16563.1953125	15618.453125	15139.564453125	16600.533203125	15469.78515625	14010.3681640625	14138.4208984375	14286.3857421875	15757.80859375	14995.30859375	16077.76171875	18759.57421875	15460.15625	16701.935546875	15382.3916015625	16396.595703125	15945.171875	16454.9453125	15276.0498046875	14609.9267578125	13575.9091796875	16035.259765625	14923.81640625	10993.6494140625	18989.8984375	15327.5888671875	16326.6669921875	16619.755859375	15873.8173828125	17773.76171875	13039.6396484375	13732.8701171875	15898.94921875	14356.0419921875	17352.33203125	16226.3779296875	15589.369140625	16918.783203125	15491.765625	14884.244140625	12313.375	15211.5400390625	17198.947265625	16468.099609375	17212.583984375	20706.216796875	15571.0078125	18118.89453125	15657.166015625	16993.419921875	16763.015625	17334.736328125	16245.3525390625	14651.638671875	14654.392578125	17201.083984375	14542.85546875	9755.994140625	18851.041015625	14514.3447265625	17096.84765625
90	120	22230.744140625	12707.484375	13757.0947265625	17296.958984375	17307.85546875	17367.623046875	20322.267578125	15971.32421875	11859.6337890625	13813.580078125	12802.40625	9192.6865234375	17962.00390625	12618.7998046875	12880.2041015625	12875.5078125	14133.1103515625	18015.220703125	17995.40625	15984.90234375	19966.439453125	14735.1708984375	14124.1767578125	12404.0439453125	15422.318359375	13220.2314453125	13225.70703125	2913.1923828125	4643.11474609375	17557.9609375	15070.6943359375	14344.3046875	3186.212646484375	17504.4375	15502.466796875	17654.779296875	20591.34375	12148.6328125	15841.1494140625	17640.51171875	14819.5556640625	16776.37890625	17307.298828125	16504.5546875	18194.998046875	16504.1015625	15586.65625	13093.9130859375	15909.3935546875	17032.2265625	16149.90234375	17109.755859375	22098.482421875	17166.25390625	17781.271484375	16839.85546875	18928.28125	16226.2919921875	18283.353515625	16624.98828125	15879.66796875	14492.970703125	17434.5546875	18100.02734375	11560.5732421875	19947.396484375	15741.642578125	18108.779296875	17068.91015625	17611.64453125	19268.423828125	12244.0576171875	15521.447265625	17758.134765625	15382.4970703125	18956.169921875	17999.345703125	16517.185546875	18798.611328125	17182.173828125	16685.109375	13074.71875	16463.87109375	18652.806640625	17437.673828125	18356.017578125	22551.8359375	17231.046875	19612.62890625	17331.3828125	18866.236328125	16995.388671875	18798.55078125	17671.1953125	16410.83203125	16124.662109375	18899.330078125	16402.419921875	10818.353515625	18689.15234375	14991.982421875	19399.0048828125
120	150	22326.404296875	12915.748046875	13429.9287109375	17424.84765625	17761.318359375	16861.70703125	20729.388671875	16804.271484375	11737.7177734375	14016.7060546875	12087.8662109375	8727.3466796875	17532.6484375	13336.837890625	12428.3232421875	13104.7763671875	14436.7294921875	17461.083984375	18603.203125	16061.6083984375	19579.724609375	15833.3740234375	13354.109375	13040.361328125	16788.66796875	13999.73828125	11316.3896484375	2930.74072265625	4426.11572265625	18345.318359375	15018.1142578125	13722.9052734375	3237.010986328125	17984.638671875	16250.814453125	17442.64453125	19950.5078125	13718.58984375	16411.5390625	17687.24609375	14926.6796875	16594.810546875	17438.65625	17256.904296875	18058.59765625	17011.79296875	16005.259765625	13898.05078125	16522.794921875	17328.439453125	16093.0888671875	17739.138671875	21766.921875	17319.630859375	19557.900390625	17190.923828125	18709.4765625	16683.75	18037.9375	16825.29296875	16043.9580078125	14921.7890625	17568.275390625	14938.8798828125	11066.8369140625	19930.533203125	15179.9521484375	18157.171875	17109.634765625	17509.74609375	19026.94921875	11706.3203125	15532.2548828125	17569.248046875	15593.8291015625	17906.61328125	17822.447265625	16870.263671875	17718.697265625	16190.5947265625	16833.919921875	12986.7265625	17796.703125	18699.439453125	17049.283203125	18364.42578125	22690.537109375	17335.623046875	19430.28125	17620.20703125	18228.81640625	16730.71875	19338.869140625	17526.1640625	16439.4296875	15850.486328125	18116.814453125	17225.234375	9585.6328125	20737.890625	15213.0224609375	19268.5341796875
150	180	22722.40234375	12738.70703125	13505.470703125	16845.505859375	17350.21875	17217.794921875	21324.482421875	15660.8505859375	11820.4775390625	13604.6015625	12062.005859375	8856.7890625	17799.859375	13873.9697265625	11088.193359375	12887.4736328125	13963.251953125	17482.76171875	18432.451171875	16200.6875	20312.544921875	15065.798828125	13813.396484375	12216.2197265625	14620.5634765625	14532.259765625	12052.1435546875	2645.917236328125	4281.4814453125	17869.45703125	15229.9501953125	13299.2939453125	3177.846923828125	17409.876953125	15888.0751953125	18050.947265625	19409.99609375	12377.515625	16052.310546875	17309.216796875	15363.392578125	16289.6572265625	16984.095703125	17226.28125	17601.005859375	16721.69921875	15998.38671875	13220.7177734375	15525.576171875	17364.044921875	17755.98828125	17085.66796875	21272.689453125	16757.697265625	18576.001953125	16677	18117.603515625	16495.69140625	18056.443359375	16561.3203125	15707.736328125	15403.1826171875	17669.810546875	16459.216796875	10998.537109375	18115.888671875	15433.474609375	17732.189453125	16374.265625	17511.203125	17883.66015625	11389.802734375	15642.294921875	17481.673828125	15660.8134765625	18213.26171875	18037.498046875	17167.267578125	17394.0859375	16502.1171875	16386.396484375	13065.8828125	17202.7578125	18074.345703125	18555.357421875	17307.677734375	22185.2421875	16388.0859375	18736.958984375	17186.93359375	18647.5859375	16709.287109375	19372.5390625	17393.140625	16094.830078125	15407.2001953125	17924.337890625	18044.71484375	9466.2919921875	18269.7734375	14750.4912109375	18980.2294921875
180	240	22160.51953125	12285.3876953125	13229.755859375	16515.021484375	17299.234375	16466.236328125	20665.783203125	15649.3828125	11282.8115234375	12867.96875	12210.4150390625	8282.513671875	15832.9619140625	12677.61328125	9847.7724609375	12498.78515625	13224.1689453125	16798.314453125	18019.37890625	15788.935546875	19713.376953125	14452.064453125	14129.623046875	11581.404296875	16434.60546875	13185.8486328125	10946.2626953125	2791.555419921875	4204.15576171875	16490.173828125	14493.6591796875	12571.7373046875	3219.561279296875	16387.41796875	15198.3046875	16532.662109375	18369.236328125	11854.509765625	15522.3564453125	16541.2421875	14372.005859375	15569.3154296875	16291.025390625	15966.748046875	16538.54296875	16304.6318359375	15170.8798828125	12707.6416015625	15084.50390625	16325.107421875	16372.2578125	16670.462890625	19504.484375	15939.1796875	17012.806640625	15894.6474609375	17386.169921875	15937.4423828125	17343.1640625	15821.58984375	14948.173828125	14285.6689453125	16405.19921875	16164.78515625	11759.49609375	17792.880859375	14620.56640625	16955.529296875	15761.2958984375	16416.10546875	17561.787109375	11488.119140625	14482.212890625	16512.681640625	14795.8017578125	16608.26171875	17239.501953125	16269.353515625	16916.15234375	15999.427734375	15774.001953125	13089.326171875	16227.1904296875	17314.310546875	16732.623046875	17022.53125	19952.6640625	16094.970703125	18423.84375	16238.521484375	17232.689453125	15560.650390625	17877.466796875	16647.388671875	15401.4716796875	14878.6044921875	17026.6015625	16176.9013671875	9801.3125	17606.509765625	14376.58203125	18501.3349609375
240	300	20123.904296875	11783.4345703125	12534.04296875	15523.2978515625	16288.552734375	14960.80859375	18639.16015625	14793.62109375	10857.859375	12786.814453125	11216.234375	7999.27685546875	14869.7978515625	12192.80078125	9020.3681640625	12003.3310546875	13075.4404296875	15563.0859375	17516.43359375	14110.4130859375	17856.61328125	13696.7841796875	13039.7646484375	11504.982421875	13265.09375	13337.5615234375	10291.435546875	2529.48974609375	4060.75927734375	15387.5673828125	13135.9736328125	11585.919921875	3211.65869140625	15806.8818359375	14806.3876953125	15151.32421875	16705.4765625	11816.8759765625	14788.9443359375	15251.98046875	13738.568359375	14329.5458984375	15305.8955078125	14665.998046875	15279.2265625	15275.1689453125	14311.2255859375	12256.376953125	13846.02734375	15051.7451171875	15323.5888671875	15570.2421875	17855.28125	14860.4462890625	16617.044921875	14897.333984375	15872.7138671875	14900.298828125	16149.4501953125	14811.3916015625	13826.2451171875	13472.3623046875	15387.3095703125	15251.984375	10359.9287109375	16908.390625	14189.5166015625	15952.6083984375	15209.0712890625	15185.42578125	15896.265625	10587.53515625	13851.955078125	15742.4951171875	13772.767578125	15471.9267578125	15632.890625	14852.802734375	15806.060546875	14985.7197265625	14590.296875	11910.7119140625	14939.8857421875	16076.681640625	16471.11328125	15517.03125	17536.650390625	14539.3916015625	16680.375	15263.9267578125	16153.423828125	14678.564453125	16728.556640625	15259.2900390625	14509.9189453125	13744.123046875	15864.927734375	14903.326171875	9738.85546875	15241.28125	13443.359375	17218.8544921875
300	360	19114.5	11212.2880859375	12018.8603515625	14343.4150390625	15859.171875	13881.5791015625	17927.654296875	13943.306640625	10632.23046875	11651.3271484375	11297.638671875	7134.89794921875	14380.1923828125	12265.09765625	8167.76708984375	11405.8916015625	12165.3740234375	14550.62890625	16035.552734375	13244.65234375	17161.33203125	13220.2333984375	12046.31640625	11628.4013671875	13626.166015625	12898.4697265625	8452.189453125	2454.44580078125	3896.729248046875	13960.8134765625	12930.2158203125	10652.68359375	3298.119873046875	14688.841796875	14234.265625	14329.861328125	15587.158203125	11083.583984375	13560.908203125	14277.9599609375	13354.2158203125	13510.2578125	14081.1396484375	14242.71484375	14199.2041015625	14031.93359375	13444.109375	12053.3916015625	13208.7001953125	14138.83203125	14425.3720703125	14448.791015625	16218.357421875	13836.4208984375	15417.3388671875	13884.7392578125	14687.7783203125	13556.1611328125	14952.7822265625	13677.2939453125	13088.4404296875	12832.3056640625	14423.6845703125	13232.650390625	10545.251953125	15449.4873046875	12972.2265625	15473.240234375	14707.0712890625	14171.873046875	15220.73828125	10091.181640625	13162.8935546875	14332.3212890625	13251.7548828125	14451.0048828125	14731.9736328125	14416.8408203125	14294.640625	14106.7841796875	13871.5087890625	11406.373046875	14025.0673828125	14946.5546875	15254.125	14121.9091796875	16686.861328125	13650.5361328125	15480.966796875	14131.908203125	14570.0146484375	13874.9443359375	15554.22265625	14429.578125	13445.09765625	13160.37109375	14737.9140625	14087.8056640625	9101.9482421875	14823.9775390625	12395.861328125	16026.76806640625
360	480	17314.564453125	10746.7431640625	11413.447265625	13152.8193359375	14909.22265625	12693.787109375	16024.30859375	13426.1728515625	9906.5771484375	11433.52734375	10962.728515625	7026.86962890625	13200.7080078125	11932.6240234375	7938.234375	10936.53125	11906.76171875	13467.2080078125	15352.7216796875	12294.96484375	15788.40625	13281.734375	11548.4541015625	11581.9189453125	13293.2724609375	12769.0498046875	9012.0791015625	2568.58251953125	3849.31005859375	13540.4052734375	11931.1162109375	9746.3271484375	3431.2158203125	13332.904296875	12957.7978515625	12598.1103515625	14135.7353515625	10973.25390625	12735.7138671875	12876.7421875	12430.3095703125	12683.650390625	12727.3115234375	12854.3583984375	13085.556640625	12725.7099609375	12512.8076171875	11527.7001953125	12030.7236328125	12765.697265625	13093.7744140625	13354.1220703125	14554.74609375	12586.9619140625	13820.826171875	12654.7900390625	13412.267578125	12601.93359375	13387.857421875	12409.2529296875	11994.2939453125	11890.8251953125	13019.2421875	12319.4775390625	10644.396484375	14271.4658203125	12424.06640625	13782.3681640625	13155.6435546875	12614.623046875	13452.63671875	10043.962890625	12649.6650390625	13182.0068359375	12594.8359375	13083.474609375	13393.2822265625	12620.5625	13217.5478515625	13122.0185546875	12666.6826171875	11164.9169921875	12553.5458984375	13758.7734375	13893.9443359375	13389.2724609375	14447.3740234375	12099.6572265625	14347.560546875	12623.9150390625	13571.595703125	12849.1865234375	14200.96875	12760.1630859375	12105.0107421875	11792.6376953125	13473.91796875	12842.720703125	9037.1953125	13367.78125	11995.056640625	14666.9912109375
480	600	15719.4775390625	10209.4765625	10631.572265625	11907.3740234375	13765.068359375	11296.7607421875	15108.1572265625	12253.0732421875	9459.8505859375	10849.09375	10900.9580078125	6547.3935546875	13957.599609375	11214.7265625	7215.0810546875	10377.2451171875	11327.2724609375	12512.5849609375	14191.306640625	11573.982421875	14107.5	12982.109375	11092.4970703125	10753.36328125	12406.6962890625	11966.7978515625	7620.5634765625	2615	3775.215087890625	11733.033203125	10918.6640625	8656.91796875	3486.996337890625	12222.5546875	12729.5068359375	11487.6396484375	12577.9716796875	10556.294921875	12067.1123046875	11743.7392578125	11640.41796875	11567.921875	11542.1806640625	11749.1396484375	11716.8212890625	12346.8359375	11713.521484375	10662.4501953125	10851.7158203125	11846.80859375	12855.71484375	12599.3173828125	12699.662109375	11447	12912.4521484375	11581.279296875	11793.3955078125	12046.2783203125	12315.8876953125	11346.822265625	10592.9345703125	11222.0859375	11936.421875	11424.888671875	9690.759765625	12712.7158203125	11765.9482421875	13346.150390625	12150.8271484375	11260.8095703125	11938.5244140625	9129.56640625	11670.435546875	11825.169921875	11613.8603515625	12316.7177734375	11925.2353515625	11950.609375	12270.361328125	11633.072265625	11612.732421875	10343.62890625	11479.779296875	12262.0771484375	12965.8740234375	11654.36328125	12737.7138671875	10967.853515625	12885.078125	11567.8115234375	12024.0078125	11354.9423828125	12811.2587890625	11488.841796875	10910.873046875	10926.8447265625	11943.7431640625	11772.78125	7953.18798828125	12628.546875	11181.4609375	13470.30224609375
600	900	13603.517578125	9540.1806640625	10200.4013671875	10473.75390625	12573.875	9510.6015625	13165.0703125	11877.78125	8713.4462890625	10117.7197265625	9873.3505859375	6085.9111328125	11428.2607421875	11005.470703125	6691.2666015625	9663.740234375	10529.3134765625	10898.2548828125	12887.76171875	10246.3740234375	12699.0029296875	12025.8388671875	10432.0732421875	10203.029296875	11625.2978515625	11325.1142578125	6474.3388671875	2639.61474609375	3768.8505859375	10186.3896484375	10650.04296875	7521.3671875	3717.57177734375	10430.1494140625	10900.19140625	10013.470703125	10993.7470703125	9379.919921875	10510.125	10054.251953125	10550.724609375	10210.0732421875	9923.7431640625	10405.58203125	10435.357421875	10572.111328125	10545.5751953125	9903.541015625	9547.4931640625	10385.5419921875	10986.20703125	10890.16796875	11004.740234375	10067.857421875	11065.3916015625	10284.28515625	10517.4208984375	10379.3369140625	10844.921875	9782.5751953125	9095.4208984375	9835.224609375	10254.4052734375	9726.69921875	8684.2451171875	10945.87109375	10236.2138671875	11366.115234375	11040.44921875	9775.2607421875	9975.326171875	9156.4248046875	10459.2412109375	10001.6357421875	10436.123046875	10408.3046875	10379.9140625	10399.314453125	10446.5947265625	10095.5634765625	10113.740234375	9714.560546875	10508.6796875	10756.5400390625	10815.5498046875	9976.69921875	10760.3515625	9399.734375	11429.8193359375	9900.9921875	10582.3623046875	9822.8681640625	10870.1630859375	9918.96484375	9216.9462890625	9739.3505859375	10183.6767578125	10238.5634765625	7547.38427734375	10556.8779296875	9745.6875	11668.6162109375
900	1200	10849.82421875	8433.6279296875	9186.2275390625	8584.251953125	10612.9375	8321.3466796875	11066.7685546875	10788.3603515625	7916.0546875	9013.58984375	8862.8447265625	5647.810546875	9488.0126953125	9503.4033203125	5854.63916015625	8410.1337890625	9552.49609375	8728.568359375	11064.2880859375	7486.17919921875	10351.2705078125	10657.6552734375	9141.8564453125	9040.4111328125	8937.42578125	10386.7900390625	6046.16845703125	2606.585693359375	3833.68310546875	7995.79833984375	9760.3505859375	6428.93603515625	3899.342529296875	8823.7431640625	8868.6728515625	8013.13916015625	8654.501953125	7582.5087890625	8530.9580078125	8010.291015625	8166.00927734375	8376.3623046875	8027.7216796875	8321.5703125	8524.9931640625	8798.318359375	8326.4677734375	7901.78271484375	8115.072265625	8114.19482421875	7828.4541015625	7774.9130859375	8601.89453125	7891.36962890625	8754.7001953125	8054.1240234375	8389.2197265625	8739.50390625	8373.0947265625	8004.771484375	7190.05224609375	8216.4892578125	8037.81005859375	8528.5693359375	7651.20458984375	8744.248046875	8444.8701171875	9200.087890625	8493.4892578125	7674.97802734375	8239.41796875	8284.892578125	8840.6552734375	7992.923828125	8804.5576171875	8572.9345703125	8427.107421875	8734.876953125	8741.2548828125	8448.732421875	8326.7431640625	8365.197265625	8201.9365234375	8527.4072265625	8767.60546875	8268.5791015625	8862.046875	7418.6318359375	9062.5458984375	8031.017578125	8467.779296875	8583.271484375	8634.6767578125	7686.96630859375	7298.86328125	7983.7529296875	8270.650390625	8219.45703125	6940.59033203125	8583.1025390625	8520.2177734375	9233.82861328125
1200	1500	8525.4541015625	7458.15478515625	8051.009765625	6915.4619140625	8809.267578125	6741.82080078125	9008.869140625	9202.373046875	6713.9443359375	7986.30322265625	7400.8291015625	5073.33837890625	8183.76513671875	8285.5107421875	5381.29931640625	7389.9833984375	8281.3828125	7054.32275390625	8927.056640625	6297.0478515625	8331.640625	8778.837890625	8225.6240234375	7647.80322265625	8070.630859375	8582.640625	5557.63623046875	2499.59228515625	3737.359619140625	7024.71630859375	8324.177734375	5217.7529296875	3853.717529296875	7251.5390625	7554.7412109375	6730.76513671875	7302.0556640625	6713.1240234375	7148.3701171875	6748.2431640625	6849.93603515625	6882.4853515625	6866.38916015625	7152.1005859375	7165.5771484375	7004.12353515625	7053.2890625	6659.87939453125	6345.71240234375	6765.71337890625	6896.91064453125	6900.89013671875	7362.2978515625	6640.67333984375	7137.41943359375	6779.85302734375	6762.2998046875	7098.53662109375	7096.5654296875	6454.61328125	5943.5732421875	6901.26220703125	6859.6953125	6273.56640625	6413.09375	7222.05517578125	7305.2734375	7724.6767578125	7362.58837890625	6385.0673828125	6953.33447265625	6510.376953125	7266.7119140625	6561.2958984375	7105.68212890625	7015.236328125	6853.583984375	7266.42138671875	7222.1865234375	7183.056640625	6723.08935546875	6929.58154296875	6808.4619140625	6937.74267578125	7073.84228515625	6396.23193359375	7478.85546875	6133.58203125	7277.609375	6561.8994140625	6772.92431640625	7257.84765625	7145.81640625	6567.61669921875	5958.4228515625	6472.4013671875	6593.7734375	7265.919921875	5996.8125	7248.70556640625	7019.4541015625	7343.42578125
1500	1800	7173.76513671875	6833.71435546875	7588.44482421875	5981.16796875	7446.64892578125	5782.0576171875	7655.46728515625	8350.798828125	6004.57470703125	7329.1279296875	6854.7490234375	4558.10205078125	6754.29736328125	7783.91845703125	4662.01611328125	6753.56591796875	7577.03955078125	5995.474609375	7661.537109375	5449.04638671875	7550.26416015625	8005.81591796875	7182.76611328125	6813.94970703125	6205.6728515625	8137.6201171875	4832.01708984375	2309.116455078125	3664.889404296875	5561.9013671875	7574.94970703125	4478.1103515625	3933.079833984375	6202.75146484375	6477.0009765625	5745.53955078125	6128.630859375	6040.48681640625	6291.9951171875	5765.517578125	6191.0849609375	6019.93994140625	5924.9638671875	6334.45556640625	6210.685546875	6101.41455078125	6121.99169921875	5628.2568359375	5457.68359375	5964.271484375	5930.48388671875	6191.9931640625	6701.6083984375	5785.08349609375	5984.95068359375	5991.46923828125	5916.1826171875	6319.75390625	6350.86962890625	5839.9755859375	5098.447265625	5977.841796875	5983.02490234375	6147.49658203125	6291.1005859375	6234.9833984375	6410.37353515625	6759.2822265625	6222.62353515625	5382.80908203125	5839.30859375	6531.98779296875	6229.7158203125	5606.0869140625	6253.81884765625	5931.1962890625	6046.083984375	6225.9580078125	6203.724609375	6185.60205078125	5858.86572265625	6041.50341796875	6162.52685546875	6092.87939453125	6230.73828125	6001.7548828125	6435.81298828125	5216.32373046875	6270.5302734375	5653.9521484375	5894.89013671875	6447.18505859375	6190.18359375	5599.62255859375	5096.11328125	5581.12744140625	5678.271484375	5893.171875	5235.703125	6247.5048828125	6032.59765625	6228.66796875
1800	2100	6268.7490234375	6287.44482421875	6698.7998046875	5294.212890625	6803.13134765625	5149.7021484375	6867.521484375	7419.88916015625	5336.650390625	6811.2421875	6379.02392578125	4224.70068359375	6543.759765625	7116.9501953125	4336.63037109375	6304.2197265625	6896.26318359375	5300.12646484375	6658.2099609375	5015.478515625	6726.04052734375	7490.48681640625	6837.60986328125	6217.32666015625	5595.865234375	7081.68505859375	4239.38818359375	2260.38818359375	3625.661376953125	4843.18505859375	6853.208984375	4042.0615234375	4010.632568359375	5585.4873046875	5766.3994140625	5104.11328125	5522.7724609375	5327.310546875	5543.9892578125	5085.91845703125	5650.61181640625	5474.5712890625	5272.02392578125	5661.701171875	5704.3876953125	5539.3271484375	5455.66259765625	4902.8251953125	5187.86767578125	5263.0751953125	5013.70703125	5435.3466796875	5831.37548828125	5047.607421875	5187.1904296875	5259.44873046875	5407.130859375	5707.8466796875	5672.81640625	5124.044921875	4580.95849609375	5352.63427734375	5320.447265625	5274.79638671875	5231.94189453125	5467.03173828125	5648.25439453125	5705.8359375	5293.498046875	4862.390625	5400.42724609375	5524.8408203125	5868.6376953125	4982.42822265625	5659.12890625	5718.3212890625	5580.443359375	5699.11962890625	5790.63916015625	5278.95556640625	5073.80126953125	5339.07421875	5383.724609375	5326.81787109375	5697.392578125	5295.63134765625	5594.19677734375	4760.97265625	5505.75048828125	5045.60302734375	5346.4404296875	5477.32177734375	5588.67578125	4977.2734375	4513.91796875	4883.59912109375	5192.6220703125	5413.87890625	4988.6142578125	5589.86572265625	5418.19287109375	5454.651123046875
2100	2400	5406.4453125	5880.6455078125	6054.4052734375	4723.66015625	5694.08349609375	4522.76611328125	5886.251953125	7035.8740234375	4808.71484375	6018.90673828125	5261.24609375	3928.803955078125	6028.43994140625	6331.64013671875	3889.935302734375	5799.24365234375	6208.392578125	4767.30322265625	6141.4248046875	4595.0390625	5991.61181640625	7070.99853515625	6606.07958984375	5150.78271484375	5154.6650390625	6230.56005859375	4287.03955078125	2207.2119140625	3612.166259765625	4279.279296875	6469.837890625	3743.27392578125	4062.451904296875	5177.79638671875	5160.1396484375	4718.70849609375	5114.6455078125	4217.41357421875	5249.4208984375	4680.2490234375	4956.19091796875	4971.546875	4947.3955078125	5088.14404296875	5225.75439453125	4991.65673828125	4843.88232421875	4544.61865234375	4945.27294921875	4823.95751953125	4963.578125	4909.58642578125	5531.6953125	4696.3330078125	5019.7080078125	4820.19287109375	4972.12255859375	5331.79248046875	5132.5908203125	4820.63720703125	4076.0048828125	4729.6748046875	4872.65283203125	5102.73828125	5016.01611328125	5251.2216796875	5178.19287109375	5218.9775390625	4725.81396484375	4576.20263671875	4760.3779296875	4624.50390625	5171.3369140625	4603.2685546875	4983.8203125	4968.392578125	5119.27587890625	4910.40185546875	5255.74951171875	4760.8349609375	4757.40625	4906.3662109375	5181.74267578125	4744.8056640625	5067.08447265625	4914.95068359375	5545.916015625	4306.1064453125	5058.14111328125	4626.994140625	4929.84765625	5129.515625	5149.6455078125	4430.5595703125	4175.76904296875	4578.3720703125	4719.55615234375	4803.58544921875	4421.05908203125	4644.27734375	4841.59619140625	4851.152099609375
