time	whole_blood_radioactivity
0.0	1300.610721556209
1.0710000000000002	1380.6160414471278
2.133	1381.4472148227605
3.204	1461.597427104782
4.266	1473.8143875186993
5.327	1622.1709167794909
6.399000000000001	1577.7537272919756
7.46	1396.9815161242896
8.532	1636.4844452956381
9.602999999999998	1501.0215102078837
10.665	1649.8420443231403
11.725999999999996	1787.455139486151
12.798000000000002	1515.1337791570418
13.858999999999998	1447.6520661891134
14.931	1688.0528136607325
15.993000000000004	1780.370104438163
17.064	2066.939975024051
18.126	1736.8177853853024
19.187	2012.2617475173781
20.259000000000004	2013.484601715847
21.32	1923.1185651679632
22.392000000000003	1729.567704088931
23.453	1879.600716039087
24.515	2327.979607267488
25.586	2501.5156392692556
26.658	2112.654081307148
27.719	2470.075134345336
28.781	2322.1189000961067
29.852	2369.539208194004
30.914	2393.9848286627653
31.986	2867.617665709605
33.047000000000004	3215.0463414450132
34.119	4127.90697617312
35.17999999999999	4488.049211264078
36.252	5887.650561653003
37.313	6757.543500875567
38.385	7929.0460641049385
39.446	8754.953395121487
40.51800000000001	10438.265469698385
41.57899999999999	11509.840848852615
42.641	12466.845731591313
43.712	14085.886579214955
44.774	14651.181204311953
45.84499999999999	15739.559502177679
46.907	16666.567488553792
47.979000000000006	16630.2102211034
49.04	18186.787314119058
50.102	19163.47296632625
51.173	21154.323506150384
52.235	22797.982708409603
53.306	21564.575712604274
54.368	24026.902701453288
55.43899999999999	25698.71919836752
56.501	27185.57482310912
57.572	27050.178467940063
58.634	27686.12768379434
59.705	29481.165938168477
60.767	29405.267160347084
61.83800000000001	31062.94367950258
62.9	31960.650312409405
63.971	30232.70299482356
65.033	31705.951374474553
66.105	33615.581921767254
67.166	33577.05824621264
68.238	34114.70882769024
69.29899999999999	33864.68650111622
70.371	36274.53635740573
71.432	35966.601444805456
72.494	36259.28583234687
73.565	38061.760378851905
74.627	38709.98072853215
75.69800000000001	39524.4439808298
76.77	39631.150984569846
77.831	41262.46259558608
78.893	42552.76978517027
79.96400000000001	42507.60124305302
81.026	42059.54856320236
82.098	43258.088419898704
83.159	44339.238195775266
84.231	44864.413076017576
85.29199999999999	44903.267144574485
86.364	44491.10725197173
87.425	44161.343812083775
88.49700000000001	44544.9206081418
89.558	44452.72794495834
90.62	43646.09470363532
91.691	43624.94225139869
92.753	43686.96594598234
93.824	42783.16177846545
94.886	41388.71746979463
95.957	41330.254018535794
97.019	41701.65414735653
98.081	39443.14632398468
99.152	39479.056961662456
100.214	39203.56074728721
101.275	38280.89780012681
102.347	38148.35574228923
103.418	36324.70145881328
104.48	36274.57288030274
105.551	34291.45860705564
106.613	34095.85037044348
107.684	32806.22552352856
108.746	32898.14731998542
109.807	30968.13349742769
110.87900000000002	30673.831702558244
111.94	31114.0436922802
113.012	29553.39454379433
114.074	30596.70714449798
115.145	30868.801180681505
116.207	29232.488096271416
117.278	28234.93868962577
118.34	28905.021152189187
119.401	26659.43994270915
120.473	26748.293596724532
121.534	26001.069797606775
122.59599999999998	27119.948692077087
123.66700000000002	26238.74107809179
124.729	27031.3708985979
125.8	25760.371276723123
126.862	25532.825784211596
127.933	24709.282133051325
128.99499999999998	24480.809871216206
130.057	23886.811788578896
131.128	23401.84747895503
132.19	23781.61965341112
133.26100000000002	23125.231429358762
134.323	22773.027683857108
135.394	22811.277179078952
136.456	21994.121245622537
137.517	21616.108135883856
138.589	21873.91898315644
139.65	21483.119263612713
140.722	20540.789047299353
141.783	20773.749779501417
142.85500000000002	20700.530582960007
143.916	20811.14698924034
144.988	20074.824947392884
146.05	20566.047927562206
147.11100000000002	20381.730274677135
148.183	20431.01757590536
149.244	19310.985706598327
150.316	19261.144470037052
151.37699999999998	19506.860972613234
152.439	18347.241818736635
153.51	18222.66722010783
154.57199999999995	18443.503665201
155.643	17417.087618450856
156.705	18366.931799292
157.776	17833.913645199245
158.838	18500.5215427267
159.899	18028.73635472113
160.971	18138.81163154693
162.03300000000002	18992.752082175386
163.10399999999998	17614.936156321677
164.166	18047.560883522827
165.237	18493.214281457735
166.29899999999998	17733.851082649988
167.36	18105.12772472844
168.432	19099.079609489025
169.49300000000002	19347.11474840754
170.565	18262.616715535212
171.626	19096.28701129098
172.69799999999998	18446.848594921066
173.759	18295.70349714859
174.821	18931.094543207808
175.892	18842.627372149676
176.954	18916.48438127763
178.025	17752.008152184557
179.08700000000002	19089.57751719042
180.159	19414.31234954274
181.22	19538.785421725403
182.292	18710.44482291297
184.455	17754.03442112104
185.516	17488.317014227618
186.578	16505.735752376644
187.649	16553.49287673041
188.711	17922.7697804524
189.782	17266.176927183857
190.844	16999.340058238256
191.905	17501.31622562001
192.977	16767.567681004388
194.049	16159.164344603078
195.11	16358.362599534243
196.182	16343.024365358593
197.243	16024.026409264334
198.315	15413.673902478555
199.376	15511.582281506102
200.438	15318.198501782386
201.509	15504.988351413484
202.57100000000003	14347.260116832555
203.642	14901.776971794376
204.704	14529.724067909714
205.765	14907.008128108366
206.837	14153.096951158941
207.898	14746.905157613357
208.97	14182.947105535886
210.032	14688.31506731253
211.103	14850.196241984995
212.165	13928.048993192358
213.236	14510.811722019665
214.298	14481.237525380659
215.369	14796.696874135365
216.431	14652.17898340444
217.492	15108.753265580019
218.564	13991.45031235386
219.625	14486.594752239955
220.697	14508.214719655649
221.75800000000004	14414.347662976732
222.83	14679.746201241593
223.891	13982.394020160371
224.953	14337.691484668356
226.025	14025.024489713878
227.086	14046.322966551046
228.158	14621.171933531148
229.219	15067.83474017254
230.291	14677.515641086426
231.352	14067.428362879791
232.424	14837.189488491555
233.485	13606.785782686346
234.547	14209.179540276698
235.618	13442.289706719324
236.68	14355.696577697005
237.751	13342.08035885289
238.813	14554.342072926112
239.874	14226.227213711869
240.94600000000003	13923.727756976108
242.008	14321.275361231135
243.079	13810.768476322735
244.141	14247.682362545871
245.202	13710.433616572942
246.274	13913.819003140312
247.33499999999995	12946.333385500786
248.407	13735.358732498746
249.478	13965.16037118497
250.54000000000005	13478.236132423086
251.611	13421.204438708703
252.67300000000003	13246.573064498401
253.734	14273.1159161714
254.806	13628.459895295877
255.867	14185.784044075188
256.929	13422.467055616962
258.0	13168.810909891568
259.06199999999995	14080.511292335075
260.134	13722.096963698843
261.195	13651.666351576097
262.26700000000005	13240.059702362532
263.328	14403.450307917667
264.40000000000003	13518.830629048287
265.461	13566.398921679727
266.533	14074.484755418493
267.594	13201.12046526701
268.666	13525.214017770748
269.727	14692.973780064945
270.799	14675.531594242153
271.86	14077.457688070055
272.932	14666.87907630887
273.99299999999994	14015.228094777525
275.065	14301.312225925605
276.127	14534.754473102956
277.188	14914.03154617049
278.26000000000005	14406.678942207613
279.321	14508.089816891912
280.39300000000003	14357.81701755292
281.454	14140.940538954603
282.516	14056.539958794338
283.587	15087.747169958011
284.649	14698.146555459061
285.72	14161.871495645435
286.782	14369.980440095414
287.853	14804.740650295978
288.915	15533.021628673809
289.976	14689.267001843602
291.048	15445.107343268039
292.11999999999995	14680.434103271264
293.18100000000004	14649.202223420323
294.24300000000005	15018.793217504995
295.314	16191.104091191803
296.37600000000003	15117.227371572346
297.44700000000006	14363.392181102454
298.509	14559.559004739573
299.57	14152.844296666
301.653	13847.525606164794
302.725	13949.924860638352
303.78599999999994	13313.465252685402
304.85799999999995	13617.291715275818
305.919	13329.568296456446
306.981	13970.15302235037
308.052	13224.488781674614
309.124	14162.305613924284
310.18600000000004	13564.088247961181
311.257	13693.745848180923
312.319	12973.017042970421
313.39	14196.585817216646
314.452	13083.31908270072
315.513	12888.32890309527
316.58500000000004	12882.628984780546
317.65599999999995	12646.723466029114
318.718	13318.215686213947
319.779	13217.772591365023
320.851	13768.402179976052
321.922	12582.323018148416
322.984	13336.87141396757
324.05500000000006	12352.929262364396
325.117	13733.740118013504
326.179	12925.651326628704
327.25	13423.610471425842
328.312	12410.011480104748
329.383	12213.085880662045
330.445	13188.799177287048
331.50600000000003	13142.143419454145
332.578	13587.102043904384
333.639	13171.702836377359
334.711	13316.426253464695
335.772	12996.112752549769
336.84399999999994	13469.417199792933
337.90500000000003	13422.731905033741
338.977	13006.034268023215
340.038	13164.702475264297
341.1	13378.45034457985
342.172	12672.629489859319
343.233	12996.227551137608
344.305	12811.675317858499
345.366	12778.116973866197
346.438	13295.115453516166
347.499	13344.425995784064
348.56100000000004	13090.646814902308
349.63199999999995	13181.322561476467
350.694	13134.072943168745
351.765	13017.805047556683
352.82700000000006	12804.634452709119
353.898	12936.800901864674
354.96000000000004	12377.571990071212
356.021	12980.050970380571
357.093	13084.863882643329
358.165	13148.234897379452
359.226	12989.785110283265
360.298	13829.97436850141
361.359	12339.25989811009
362.421	13027.21465106823
363.492	12479.255096055176
364.564	13182.097038982089
365.625	12563.916782634717
366.687	13295.419732371429
367.758	12885.581099382396
368.82	12753.951171542327
369.891	13096.427504126792
370.953	12280.931333328965
372.024	12874.87872996537
373.086	13008.382155127787
374.158	13491.640503553574
375.2190000000001	13177.999411861581
376.281	12696.00977370221
377.352	13039.869258777355
378.414	12963.631242786441
379.475	12957.405231114999
380.547	13807.180727770465
381.608	13534.682700705946
382.68	12868.572090384392
383.741	13396.425112039275
384.80300000000005	13306.031168109776
385.874	12793.367581274371
386.936	13364.372974525828
388.007	13809.312123180363
389.069	13197.242557227757
390.141	13600.29176072979
391.202	13001.454945544541
392.274	13009.355947382885
393.335	13497.727987133034
394.407	12742.244448032046
395.468	12820.66265497772
396.54	12984.207643046891
397.60100000000006	13133.696749757231
398.67300000000006	12900.676466838111
399.734	13149.582358020964
400.796	12774.2706908415
401.867	13520.54346899061
402.929	12249.71109632121
404.0	12569.97576733163
405.062	13246.258816232368
406.123	12229.194522217174
407.195	12450.304210224818
408.257	12543.32232903344
409.328	12565.20023960115
410.39	13043.708396915597
411.461	12337.643670962865
412.523	12645.125129035016
413.5940000000001	12867.256696520051
414.656	12717.642031328905
415.727	13226.361905046757
416.789	12818.96158128653
417.85	12826.671721893603
418.922	13307.692647120557
419.983	12655.65142911401
421.055	12893.06278066392
422.116	13044.479155160097
423.178	12922.958995235102
424.25	13304.784619415392
425.311	12665.137869372253
426.383	13364.080008549994
427.444	13631.490996926275
428.5160000000001	12817.92797217597
429.57700000000006	12623.65894793764
430.64900000000006	13353.120669071115
431.71	12725.59458232317
432.772	12993.413108026398
433.843	12234.817985732341
434.905	12603.950381433833
435.976	13494.849242644164
437.038	12372.896371345967
438.109	12409.402311774065
439.171	12358.85038238846
440.233	13004.925526614797
441.304	12780.449454719846
442.366	12802.675660342977
443.437	12577.795734801384
444.499	12541.719280201638
445.5700000000001	13379.1621245145
446.632	12221.844274879099
447.703	13118.400617624375
448.765	12805.433229275863
449.836	12681.86516978451
450.898	12777.11454290149
451.969	12229.643241969872
453.031	13172.69090001996
454.092	12419.912444831158
455.164	13466.741153240782
456.226	12801.106118841348
457.297	12603.701572237827
458.359	12787.260868582007
459.43	12662.965714651373
460.492	12964.22974788245
461.55300000000005	13471.516420471818
462.625	13200.407159452465
463.686	12752.379299800114
464.758	12657.105982359693
465.819	12856.16219600064
466.891	12628.209040177158
467.952	12945.433263875428
469.014	12481.127430659397
470.085	13020.139412996023
471.14699999999993	13013.206987859485
472.219	12740.29653041156
473.28	12969.791596230945
474.352	13273.629419064273
475.413	12541.277851649234
476.475	13082.190319896039
477.546	12823.289938747872
478.608	12845.843491727774
479.679	12007.61766622142
480.7410000000001	12891.083890938293
481.812	12884.050014169603
482.874	12222.68169856162
483.945	12423.52262052928
485.00700000000006	12966.949353806714
486.078	12587.513913138006
487.14	12818.673498681901
488.212	12528.173576917141
489.273	12550.632281962706
490.345	13319.818444570908
491.40600000000006	13566.894044662147
492.468	12379.021051400461
493.539	13089.63729738503
494.611	12768.281006009067
495.672	12401.518675105022
496.744	12693.803943651574
497.80500000000006	13301.270627326507
498.877	12634.132945667738
499.938	12701.787652131741
501.01	12619.368201452558
502.071	13002.76062405338
503.133	13416.699547125023
504.205	12416.483898295317
505.276	12047.536845159899
506.338	13139.72091837043
507.409	13268.319580746796
508.471	13170.70052613887
509.5319999999999	12303.06656741006
510.604	13503.835071125977
511.665	12393.517733121242
512.7370000000001	13338.68960291232
513.798	13210.521398824416
514.8600000000001	12930.787235710499
515.9309999999999	12787.13166088416
516.993	13128.344431614796
518.064	14319.493596128397
519.1260000000001	13614.744271107447
520.198	12939.588974566766
521.259	12369.906734620048
522.331	13198.530691863722
523.392	12886.957779620616
524.454	13366.659690462993
525.525	13054.877239388032
526.587	13017.009477964471
527.6580000000001	11987.800076138115
528.7199999999999	13414.274849559082
529.791	13758.361346380176
530.853	12911.003814165933
531.9140000000001	12628.288111309936
532.9859999999999	11978.158004308903
534.047	12582.33450720947
535.1189999999999	13126.050551463042
536.181	13317.858828868933
537.242	13433.212056800361
538.314	12628.141535949833
539.3749999999999	13403.400143688428
540.447	12735.591229522159
541.508	12512.673700688485
542.5699999999999	12981.639395544149
543.641	12727.883722899576
544.7030000000001	12997.34108578322
545.7739999999999	12450.506672564488
546.836	12596.767137688024
547.9069999999999	12542.704344619684
548.969	12612.003313149626
550.03	13052.084069282217
551.102	12719.991757505282
552.173	13964.916396396438
553.235	12472.313296956057
554.3069999999999	12743.116282811898
555.3679999999999	12580.35724646438
556.44	12851.54426770949
557.501	13169.509807927981
558.5730000000001	12354.888454416861
559.634	12207.013950860952
560.696	12494.081184675248
561.767	12999.245546837778
562.829	13038.18888890957
563.9	13170.649974029191
564.962	12430.858310308564
566.033	13856.82017429333
567.0949999999999	13989.933272088136
568.156	12843.523038006553
569.228	12414.101836216287
570.2900000000001	13374.677527935644
571.3610000000001	13429.700082006402
572.423	13703.725044636469
573.494	13790.310143461722
574.556	12952.84040968764
575.617	12756.896848699498
576.6890000000001	12858.737555829293
577.75	13352.887010764249
578.822	14208.8207149275
579.8829999999999	13903.170853909794
580.955	14084.532618575124
582.016	13778.427973152422
583.0880000000001	13802.539500024157
584.149	14676.971520690195
585.221	14071.35238996967
586.283	13859.08745844277
587.344	13977.857739008592
588.4159999999999	13386.485984903344
589.477	13078.628568247479
590.539	13702.895529957625
591.6	14280.457905745501
592.6719999999999	14700.562006757411
593.733	13616.886244506395
594.805	14385.635360769242
595.866	14219.907660318595
596.9379999999999	13863.714524770368
597.999	14062.516017281461
599.0609999999999	14388.611477443683
600.1320000000001	14460.911744246756
601.1940000000001	13658.683042443887
603.297	14343.596040713408
604.369	14416.029922846645
605.4300000000001	12639.544319590303
606.492	12423.874834323296
607.5630000000001	12814.413978557892
608.625	13333.097662637947
609.696	12766.003499656683
610.7579999999999	12965.534168747732
611.819	12637.401540427769
612.891	13061.248539389819
613.952	12876.911694952496
615.014	12900.689693844743
616.0850000000002	13229.230769790107
617.1469999999999	12194.264645261634
618.208	13357.540016256979
619.28	12433.916870772782
620.352	12119.987889056449
621.4129999999999	13301.403970381298
622.475	11860.987321864866
623.5459999999999	12721.667492470524
624.608	12697.100185486039
625.679	12430.720510841033
626.741	12825.38564072088
627.812	12833.172372270388
628.8739999999999	13115.483584723728
629.935	12476.900541896499
631.0070000000001	12274.251843814747
632.068	13301.05855725886
633.14	12758.64185322617
634.2009999999999	12474.69936491367
635.273	11995.957649267126
636.335	12360.03087017589
637.4060000000001	12675.911927554847
638.468	11887.776741076801
639.539	13259.993554605684
640.601	12341.169298567313
641.6619999999999	12283.513845391473
