time	plasma_radioactivity	metabolite_parent_fraction	whole_blood_radioactivity
760.2	5979.376455395031	0.8856930324820234	18474.5730431671
1885.2	4081.263168769502	0.8062542488103331	11986.519652418914
3880.8	2710.365121047961	0.7197640117994101	10493.222659071469
6090.0	2318.0750753375332	0.8571428571428571	5081.319534322017
