time	plasma_radioactivity	metabolite_parent_fraction	whole_blood_radioactivity
178.20000000000002	21434.699320133248	0.9699189238990235	25431.999258439646
297.0	15509.604449638882	0.9284782041242495	22875.922711405794
604.8	9445.489138882966	0.9147061580279314	16037.865312422338
900.0	7263.775978139891	0.8785070785070785	13895.992350399927
1798.8	4600.660416188823	0.8506864988558352	9312.646450954684
2697.0	3783.6841892587972	0.8586413586413586	6946.483256261205
3597.0	3231.3847255594965	0.847769028871391	5436.6111681424545
5398.2	2307.995197100502	0.8558139534883721	3644.2201462219937
7207.200000000001	2033.8813685141204	0.8529411764705883	2800.994308754204
