frame_start	frame_end	highbinding	left_cerebral_white_matter	left_cerebellum_white_matter	left_cerebellum_cortex	left_thalamus	left_caudate	left_putamen	left_pallidum	brain_stem	left_hippocampus	left_amygdala	csf	left_accumbens_area	left_ventraldc	left_choroid_plexus	right_cerebral_white_matter	right_cerebellum_white_matter	right_cerebellum_cortex	right_thalamus	right_caudate	right_putamen	right_pallidum	right_hippocampus	right_amygdala	right_accumbens_area	right_ventraldc	right_choroid_plexus	aircavity	skull	vermis	pons	csf_extracerebral	head_extracerebral	ctx_lh_bankssts	ctx_lh_caudalanteriorcingulate	ctx_lh_caudalmiddlefrontal	ctx_lh_cuneus	ctx_lh_entorhinal	ctx_lh_fusiform	ctx_lh_inferiorparietal	ctx_lh_inferiortemporal	ctx_lh_isthmuscingulate	ctx_lh_lateraloccipital	ctx_lh_lateralorbitofrontal	ctx_lh_lingual	ctx_lh_medialorbitofrontal	ctx_lh_middletemporal	ctx_lh_parahippocampal	ctx_lh_paracentral	ctx_lh_parsopercularis	ctx_lh_parsorbitalis	ctx_lh_parstriangularis	ctx_lh_pericalcarine	ctx_lh_postcentral	ctx_lh_posteriorcingulate	ctx_lh_precentral	ctx_lh_precuneus	ctx_lh_rostralanteriorcingulate	ctx_lh_rostralmiddlefrontal	ctx_lh_superiorfrontal	ctx_lh_superiorparietal	ctx_lh_superiortemporal	ctx_lh_supramarginal	ctx_lh_frontalpole	ctx_lh_temporalpole	ctx_lh_transversetemporal	ctx_lh_insula	ctx_rh_bankssts	ctx_rh_caudalanteriorcingulate	ctx_rh_caudalmiddlefrontal	ctx_rh_cuneus	ctx_rh_entorhinal	ctx_rh_fusiform	ctx_rh_inferiorparietal	ctx_rh_inferiortemporal	ctx_rh_isthmuscingulate	ctx_rh_lateraloccipital	ctx_rh_lateralorbitofrontal	ctx_rh_lingual	ctx_rh_medialorbitofrontal	ctx_rh_middletemporal	ctx_rh_parahippocampal	ctx_rh_paracentral	ctx_rh_parsopercularis	ctx_rh_parsorbitalis	ctx_rh_parstriangularis	ctx_rh_pericalcarine	ctx_rh_postcentral	ctx_rh_posteriorcingulate	ctx_rh_precentral	ctx_rh_precuneus	ctx_rh_rostralanteriorcingulate	ctx_rh_rostralmiddlefrontal	ctx_rh_superiorfrontal	ctx_rh_superiorparietal	ctx_rh_superiortemporal	ctx_rh_supramarginal	ctx_rh_frontalpole	ctx_rh_temporalpole	ctx_rh_transversetemporal	ctx_rh_insula	reference
0	30	4835.47021484375	2984.011474609375	2846.03466796875	3920.872802734375	3959.488525390625	3744.073486328125	4703.24755859375	3187.992431640625	3459.07373046875	4575.84375	4000.546630859375	2359.698974609375	3850.76123046875	4319.7412109375	3219.290771484375	3052.064453125	2914.43212890625	3797.643798828125	3918.017333984375	3334.672607421875	4787.53076171875	3036.8896484375	4086.65869140625	3679.65087890625	6308.13427734375	4143.08447265625	4429.57080078125	1511.413452148438	1522.117309570312	3598.199951171875	3542.45947265625	4788.4892578125	1019.868286132812	4256.01123046875	4862.70263671875	3842.696044921875	5801.04248046875	3478.766357421875	4061.722900390625	4036.92431640625	3470.094970703125	4898.72607421875	4020.11181640625	4544.07470703125	5287.99267578125	5263.75048828125	3790.388427734375	4364.69873046875	4154.3857421875	4857.06005859375	4523.88916015625	4585.39306640625	5304.91943359375	4552.75390625	5248.50537109375	4051.636962890625	4608.4970703125	5330.79296875	4247.28662109375	4298.107421875	4160.13330078125	4461.2841796875	4275.69091796875	4953.701171875	4032.716796875	6442.5859375	5688.08251953125	4211.9228515625	5359.09033203125	4199.3544921875	5730.1142578125	4606.6298828125	3890.08544921875	4129.5068359375	3834.23779296875	4936.3330078125	4433.580078125	4870.01513671875	5177.47705078125	5411.3310546875	4066.60498046875	4506.62451171875	4767.6611328125	5031.41357421875	4377.7373046875	4268.1552734375	4464.4814453125	4757.9287109375	5083.83740234375	4156.931640625	4423.26904296875	6359.63427734375	4642.2724609375	4702.52783203125	3979.792236328125	4997.3818359375	4415.8154296875	4493.72900390625	4753.60400390625	6694.34326171875	4918.82177734375	3939.318969726562
30	60	33318.7890625	20555.650390625	21483.5546875	26607.595703125	27517.521484375	24875.921875	31486.4140625	23556.173828125	20414.845703125	25275.900390625	21760.291015625	15143.4521484375	29271.31640625	24226.3203125	19317.26953125	20797.322265625	20906.119140625	26986.564453125	28408.76171875	23009.671875	31474.18359375	21647.630859375	25930.98046875	24247.458984375	28435.2578125	25424.390625	21619.556640625	8119.56494140625	8581.306640625	26037.765625	22870.6484375	26843.271484375	5970.96142578125	27173.93359375	28732.591796875	28573.689453125	36563.34375	20953.220703125	26443.287109375	27708.7734375	24804.3828125	29775.9453125	28248.40234375	28509.826171875	34119.109375	32188.11328125	26372.91015625	25018.0859375	29169.236328125	30509.439453125	28390.06640625	27396.53125	34937.22265625	28463.353515625	31619.873046875	28052.287109375	30848.474609375	31918.052734375	30135.47265625	29315.001953125	28183.689453125	26580.36328125	28514.564453125	30545.478515625	23100.197265625	37550.765625	30953.455078125	28219.77734375	31278.986328125	30285.8359375	34432.2734375	24367.015625	26424.830078125	28680.185546875	25139.4921875	29734.05859375	30737.5546875	29964.056640625	32813.671875	34552.69140625	27264.609375	26205.466796875	30945.640625	32216.455078125	30499.796875	30429.455078125	33255.1640625	29233.529296875	33986.29296875	28279.5859375	29981.15625	34515.3515625	31998.212890625	31356.29296875	27762.767578125	28421.40234375	29614.021484375	33080.765625	24428.3984375	37112.95703125	29789.212890625	28444.61328125
60	90	64053.9609375	37339.296875	39420.55078125	49337.08984375	51412.5703125	47544.51171875	59302.27734375	44999.796875	35248.6015625	40822.32421875	40511.86328125	26661.978515625	55978.44921875	43077.5625	35548.8125	37709.3828125	38387.3203125	48078.55859375	53096.46484375	46785.10546875	58440.1640625	42550.63671875	43963.86328125	37905.83203125	47150.03515625	44356.80078125	40078.1796875	12315.5546875	13760.267578125	46767.26171875	40669.46484375	43086.6015625	9644.88671875	48873.12109375	50415.92578125	53484.8515625	60889.37109375	37409.73828125	47171.515625	49968.85546875	44747.81640625	51912.5546875	52749.4765625	50807.82421875	58536.50390625	55263.4609375	47755.1484375	42008.5703125	51391.796875	53772.1640625	50990.31640625	50868.05078125	61775.0703125	50368.96875	56608.1640625	50619.37109375	55671.08203125	53253.22265625	55278.03125	53157.90625	50875.40234375	46345.9296875	49598.79296875	55184.59765625	39032.04296875	62643.20703125	51220.5859375	52466.3203125	51133.24609375	54968.94921875	60411.140625	40679.50390625	47152.12890625	50553.71484375	45551.5390625	53134.87109375	54917.8828125	52400.9765625	57482.91796875	56132.84765625	48031.6171875	44080.54296875	53742.0859375	55756.703125	53197.0546875	55457.24609375	61528.55859375	52029.75390625	58014.86328125	50425.1796875	53728.58984375	55659.0625	58870.72265625	55813.76171875	50006.09375	48966.80859375	51914.53125	55387.7265625	40857.9453125	59489.28125	48873.7265625	52692.345703125
90	120	67593.984375	39668.68359375	41507.3359375	51546.24609375	54272.8828125	49789.015625	63418.78125	46881.71484375	35194.73046875	42812.1953125	39552.20703125	26756.216796875	56876.1015625	44023.63671875	35210.4296875	39942.1328125	40805.30078125	50849.40234375	56296.76171875	46492.578125	62652.1171875	45496.17578125	45288.7734375	39412.8515625	49245.12890625	44378.88671875	38123.4765625	10876.013671875	13131.8251953125	51412.04296875	43290.90234375	41094.12890625	9295.8154296875	52672.57421875	53099.6484375	55504.4609375	61445.359375	37964.44921875	49285.9609375	52877.6953125	47564.125	53434.6796875	56379.12890625	53407.82421875	60096.171875	58356.8359375	49968.87890625	43366.125	53959.890625	56041.9765625	56502.01953125	53025.00390625	65231.1484375	53254.84375	60636.046875	53466.29296875	57935.12890625	55417.2890625	58605.32421875	54929.71484375	52207.1484375	48662.078125	52128.92578125	57329.86328125	41624.55859375	63892.76171875	51968.6015625	56139.85546875	53942.078125	58352	63132.96484375	40526.640625	49752.1875	54426.3359375	48287.5625	54738.9375	57940.97265625	54233.953125	59827.57421875	58022.3671875	50134.1328125	47288.76171875	56110.109375	59578.609375	55623.390625	56889.75390625	67398.03125	53903.08203125	61568.17578125	53691.46875	57549.53515625	52468.12109375	61957.12109375	56908.140625	53079.2265625	50073.4609375	54142.69921875	60241.43359375	42404.73046875	63192.28125	50960.61328125	56192.076171875
120	150	66576.7109375	39552.77734375	42128.72265625	51070.3671875	53267.9296875	47860.578125	61588.8828125	47601.6640625	34356.5078125	43617.89453125	39441.375	26091.994140625	55075.7578125	42228.50390625	37613.5390625	39873.1953125	40502.24609375	50412.2265625	57027.73046875	46951.41015625	62084.6875	44401.40234375	44410.265625	36302.77734375	48371.4296875	43066.5234375	36110.0546875	10972.654296875	12904.400390625	48483.8984375	43661.4609375	39384.1875	9354.302734375	52004.45703125	54280.99609375	55423.46875	61359.5625	36624.09765625	49602.64453125	52051.98828125	47236.87109375	50685.9140625	56173.48828125	52333.23828125	59198.04296875	58514.83984375	50026.94140625	43119.75390625	53088.27734375	55017.5703125	54812.7578125	52621.140625	64530.1640625	51539.46484375	59439.890625	52554.15234375	56856.9140625	53318.9375	57488.203125	54753.40625	51512.30859375	48558.71875	51657.04296875	54835.32421875	41771.10546875	64762.453125	50503.10546875	53904.23828125	53200.26171875	57966.40625	60733.25	40301.38671875	49225.12109375	53207.94921875	48224.02734375	52144.49609375	57581.53125	52524.05078125	58311.1953125	56593.85546875	50652.046875	44836.56640625	55861.88671875	58060.5078125	57793.71484375	56270.21875	67601.0390625	52994.12890625	60996.52734375	53375.91015625	55794.7734375	53032.0625	61405.19140625	56112.04296875	51602.6015625	50314.5625	53599.86328125	59690.02734375	42022.59375	62742.95703125	50174.87109375	55861.548828125
150	180	65964.1953125	39094.01953125	40555.2578125	50209.7265625	52822.0625	47799.23828125	62543.77734375	48486.70703125	34974.234375	45599.109375	38914.15234375	26287.498046875	55027.09765625	42973.9609375	37139.5078125	39360.83984375	40370.53125	49136.19921875	54110.3828125	47500.67578125	61250.4453125	44714.4375	46126.33984375	39030.83203125	56961.421875	44315.15625	38318.12109375	10400.759765625	12653.6171875	46547.921875	42139.171875	38366.9453125	9291.05078125	51620.4296875	53754.50390625	52367.25	59220.94140625	38017.05078125	48116.515625	51032.14453125	46830.9296875	50015.5703125	54929.78125	51416.08984375	59043.53515625	54989.25390625	48710.953125	44363.87890625	51379.2109375	55274.40234375	54402.75390625	52074.2421875	62636.0625	50920.1875	57825.015625	51612.94140625	54630.5234375	53067.640625	56093.96484375	53102.49609375	50747.65625	47285.8359375	49643.96484375	55989.4765625	40195.08203125	63326.15234375	49520.34375	53196.34375	54519.6171875	55020.765625	62201.70703125	38083.6875	48584.7734375	52744.546875	48095.5859375	53057.0546875	56186.37890625	52686.72265625	58027.75	55875.80859375	49777.16015625	44575.41015625	54439.75390625	56082.66796875	54180.8125	54801.078125	65189.09375	51961.35546875	59505.015625	51771.828125	55657.34375	52783.15625	59536.6796875	54853.69921875	51278.48828125	47896.62890625	53253.1796875	57924.9375	40857.83203125	63451.6328125	48893.90625	54758.98046875
180	240	63186.5	38042.14453125	40061.5234375	48488.65234375	52067.72265625	45434.375	59181.69921875	46975.05078125	34494.7578125	42720.3203125	38948.2734375	25741.513671875	51772.54296875	42639.2109375	37418.9921875	38406.2578125	39259.3046875	47642.51953125	54394.29296875	44446.61328125	58494.69140625	43439.125	44902.1171875	37465.125	51002.734375	42670.3046875	38880.56640625	9754.51953125	12307.5546875	47209.765625	41016.9765625	36796.17578125	9295.634765625	48890.22265625	52335.23046875	51035.10546875	58152.99609375	35815.19921875	47095.375	49487.2734375	45068.29296875	47435.328125	52855.0859375	49578.2734375	56534.63671875	53474	46821.43359375	41897.6796875	50372.953125	51511.03515625	51636.69921875	49616.640625	60798.4140625	49032.60546875	54994.51171875	49683.6328125	52724.2734375	52292.91015625	53541.15625	51722.43359375	48988.5859375	45388.07421875	48328.12890625	53399.26171875	38547.78515625	58950.87890625	48127.91796875	51672.7421875	50154.16015625	54121.81640625	58586.28515625	36442.98046875	47454.34765625	50627.38671875	46283.7578125	49730.67578125	54286.109375	50509.87109375	55940.58203125	53093.8984375	47902.17578125	43857.73828125	50962.52734375	54065.9765625	52544.359375	52532.75390625	64459.33984375	50888.94921875	57569.32421875	49426.734375	52022.62890625	49392.50390625	57341.71484375	52453.5859375	49580.50390625	46924.4140625	50880.55078125	55250.24609375	39289.984375	58083.5	47831.58203125	52920.1953125
240	300	60060.55859375	36634.38671875	38159.53125	45793.73828125	50580.74609375	43126.2734375	56501.28515625	44617.7109375	32877.96484375	43053.55859375	37074.80078125	25004.171875	48362.8359375	41942.53515625	38925.71484375	36922.95703125	37642.62890625	44945.65234375	52269.390625	42294.9140625	55084.8671875	42196.578125	42959.28515625	35195.609375	49038.44921875	41594.03125	38096.703125	9221.080078125	11879.5888671875	43938.15625	38261.33203125	34586.08984375	9253.34765625	47438.57421875	48585.046875	47881.015625	55128.703125	35581.9609375	44809.39453125	46814.56640625	43103.31640625	43925.5546875	50524.5234375	47000.11328125	53317.51171875	51777.43359375	44588.890625	40598.3125	46808.1796875	48907.01953125	49630.51953125	46439.74609375	58342.1796875	46489.3984375	51426.140625	47241.546875	49499.9375	50062.1875	50252.05078125	48324.09375	46955.75390625	43011.55859375	46178.796875	49636.703125	37053.99609375	52572.8515625	45600.71875	48399.1640625	49929.390625	49799.09375	55545.5234375	33891.546875	45699.45703125	48047.10546875	43144.40234375	46833.84375	51598.17578125	47776.2421875	52898.11328125	49873.03515625	45191.80078125	42229.9375	48569.4140625	50145.671875	48824.8359375	48711.85546875	60419.20703125	47842.50390625	52994.046875	46383.28125	49052.77734375	47579.19140625	53676.359375	49427.91015625	46797.90234375	44476.453125	48378.84765625	49967.70703125	37154.31640625	53206.5234375	45640.32421875	49834.912109375
300	360	56536.69921875	35592.80078125	36947.87109375	43780.85546875	47837.41796875	40442.27734375	53076.16015625	41949.91796875	32419.2578125	42390.7265625	37150.640625	24105.48046875	47797.76953125	39670.83203125	37510.26171875	35709.546875	36350.609375	43001.94140625	50210.93359375	40431.2265625	52435.17578125	41444.921875	43539.66796875	36242.1640625	45713.62109375	41622.05859375	37806.40234375	9075.447265625	11627.6787109375	42236.27734375	38297.37890625	32668.96484375	9371.984375	43632.35546875	46265.796875	44300.65625	53042.51953125	33564.421875	43420.00390625	44301.82421875	41332.2109375	42046.0078125	48312.296875	44902.6953125	51702.3671875	49868.72265625	42821.73046875	38273.4765625	44759.078125	45953.76953125	47114.109375	44843.80859375	57214.0546875	44305.41015625	48518.27734375	44725.46484375	46941.63671875	47106.58203125	47345.203125	45167.98046875	44535.28515625	40955.0234375	42732.4375	47080.22265625	35037.16796875	53490.390625	43575.44140625	46925.64453125	45349.85546875	47453.1484375	52708.40625	31729.376953125	43323.86328125	45430.13671875	41104.79296875	44561.59765625	49098.2109375	44555.953125	50769.75390625	47362.82421875	42647.140625	41463.0546875	46303.78515625	48154.18359375	46054.375	46578.9609375	58824.0625	45137.46484375	50498.75390625	43934.16796875	46748.421875	45365.4609375	49912.90625	45901.99609375	44720.0625	42383.76953125	45688.12109375	47392.0390625	34853.67578125	52090.30859375	43269.6796875	47587.357421875
360	480	52712.94140625	34133.94921875	35647.46875	41035.44921875	45925.4921875	38018.234375	50157.5078125	41410.22265625	30905.400390625	41072.47265625	36050.109375	23704.482421875	45236.69140625	39299.42578125	37197.70703125	34226.69921875	34932.875	40452.61328125	47746.21875	37252.171875	48664.66796875	39716.30859375	43670.1875	35599.2421875	42767.21484375	39187.91015625	37573.62109375	8803.7373046875	11415.125	38668.9375	36829.85546875	30626.638671875	9478.8994140625	42931.86328125	43673.2890625	41161.62890625	50366.765625	32609.615234375	41606.80859375	41942.05078125	38439.6875	39501.3671875	46123.10546875	41984.953125	49227.41796875	45052.8671875	40063.75390625	36480.05078125	41327.71484375	42721.4921875	43722.8515625	41731.57421875	53449.953125	41873.4375	45763.90625	41581.28125	44595.11328125	44501.03515625	43901.859375	42062.6875	41907.40625	38635.78515625	41114.5390625	44066.0078125	33983.19140625	48659.3515625	41125.44921875	44625.16796875	43396.078125	43346.81640625	50700.8984375	32724.947265625	41526.87109375	42459.109375	39126.3125	41294.16015625	46612.75	42363.37890625	48415.85546875	44507.6484375	40256.53125	38256.38671875	43337.13671875	44089.7734375	43074.984375	43219.17578125	56235.265625	43031.64453125	46252.25	41606.859375	43979.56640625	42794.8359375	46803.56640625	42980.90625	41949.48828125	40002.78515625	43062.94921875	43887.2109375	34539.53125	49095.4140625	41736.99609375	44587.375
480	600	48947.82421875	32786.9453125	34548.04296875	38079.01171875	44487.8125	35482.46484375	46388.859375	39642.10546875	30460.232421875	40273.17578125	34006.4140625	22972.623046875	41852.92578125	37312.078125	37487.9453125	32913.05078125	33909.6171875	37498.78515625	45345.8984375	34424.8828125	45553.77734375	38212.51953125	42053.55859375	33807.703125	40601.3203125	38262.81640625	37822.2109375	8462.43359375	11278.037109375	36810.15625	35395.73046875	28495.05078125	9628.7412109375	39558.22265625	40663.5625	38599.28515625	48036.54296875	31048.796875	38756.57421875	39018.5859375	36570.67578125	36856.703125	43774.37109375	39052.28515625	47334.96484375	41869.84375	37554.09765625	34876.15625	38922.35546875	39371.50390625	40230.09375	39090.875	51981.8046875	39655.1328125	42395.3984375	38886.6953125	41569.14453125	41468.73046875	40280.19921875	38455.453125	39210.640625	36418.86328125	37762.2421875	39905.3203125	33359.8671875	45201.203125	39061.9765625	41593.14453125	40265.703125	39408.375	48264.66796875	30736.75	39260.15234375	39518.890625	36117.2265625	38315.18359375	44039.578125	39715.765625	46114.109375	40858.10546875	37736.953125	37055.203125	39826.45703125	40900.09765625	39306.00390625	40018.22265625	54475.515625	40306.25	42821.24609375	38564.2578125	40989.26171875	39955.8671875	43112.24609375	39092.6640625	39902.171875	37492.765625	40137.26953125	41207.83984375	32411.958984375	45870.76171875	39113.234375	41080.685546875
600	900	42645.46875	30946.478515625	32177.3671875	34081.88671875	40945.8046875	30407.056640625	40540.265625	36912.7734375	28976.017578125	38979.36328125	33221.19921875	21942.037109375	38209.65234375	35305.9921875	36978.21875	31147.349609375	31594.099609375	33586.8515625	42164.70703125	30441.46875	40396.2421875	36655.77734375	42049.26953125	32942.6953125	35847.09375	36522.6875	37510.984375	8201.4345703125	11230.9833984375	32520.955078125	34401.953125	25663.43359375	9956.75	35550.51171875	36963.0859375	33755.78125	44595.2890625	28528.576171875	35401.16796875	35641.35546875	33230.921875	32604.958984375	40240.16796875	34691.1875	43902.58984375	37128.90625	34019.390625	32080.97265625	35183.65234375	34825.8125	35908.92578125	35014.5	49171.109375	36030.53515625	37169.5546875	35285.4140625	37636.58984375	36917.25390625	35603.40625	34149.4609375	36138.34765625	33272.25	34426.5390625	35342.49609375	29551.69921875	41192.05859375	35301.13671875	37611.66796875	36320.2734375	34605.91796875	44735.140625	28313.51171875	35754.4140625	35890.27734375	32676.791015625	33989.53125	40702.07421875	35440.62890625	43120.4921875	36321.02734375	33673.54296875	33762.90234375	36031.93359375	36235.11328125	34732.78125	35407.1171875	50784.80859375	36872.8515625	37457.37890625	34800.48046875	36866.65625	35561.70703125	37954.77734375	34560.66015625	36564.23828125	33998.9296875	36243.73828125	37087.7890625	29996.974609375	41203.76953125	35695.47265625	36524.0625
900	1200	36295.18359375	29010.8984375	30106.681640625	29523.310546875	36894.546875	25966.337890625	35486.46484375	34058.5859375	27402.171875	38321.84375	30557.0859375	20375.94140625	34027.53515625	33331.1953125	35443.0546875	29201.201171875	29609.681640625	29035.671875	37769.51171875	25913.646484375	35002.390625	33470.953125	39969.28515625	31238.6875	32372.880859375	34492.5	36251.0546875	7867.14697265625	10969.814453125	28603.046875	32774.703125	22618.099609375	10284.2294921875	32000.58984375	32188.767578125	29186.6953125	41030.97265625	26997.28125	31935.509765625	31653.357421875	29833.080078125	29243.0234375	36872.75390625	30513.873046875	40571.765625	32173.572265625	30439.724609375	29255.474609375	31420.314453125	30604.7890625	31366.70703125	31043.158203125	45745.73828125	32656.36328125	32099.1953125	31565.037109375	33413.14453125	32224.376953125	31367.99609375	29598.134765625	32422.49609375	29734.388671875	30684.646484375	31181.64453125	27129.5546875	36759.21875	31662.037109375	34229.61328125	31778.732421875	30026.4609375	41268.9609375	27605.916015625	32243.94921875	31668.125	29186.259765625	30279.818359375	36925.82421875	31461.16796875	39990.5859375	31787.44921875	29743.29296875	30605.16796875	32084.986328125	31117.5390625	30757.546875	31093.16015625	47733.43359375	32941.59765625	32600.283203125	30713.560546875	32585.51171875	32383.462890625	33219.92578125	29984.84375	32937.5703125	29882.26953125	31761.32421875	32814	27757.83984375	37102.98046875	31688.52734375	31209.4296875
1200	1500	32301.3359375	27343.087890625	27933.546875	26159.076171875	33629.6640625	23100.126953125	32299.263671875	32788.890625	26148.20703125	37087.9296875	28454.357421875	19575.095703125	30355.861328125	30996.9453125	34083.90625	27592.5859375	27790.18359375	25717.236328125	34905.7734375	23401.736328125	31610.837890625	31397.30859375	38618.3515625	28570.33984375	28148.98828125	32254.0390625	34830.09765625	7601.86328125	10788.416015625	24626.5	31489.5390625	20400.07421875	10409.99609375	29100.1875	29355.025390625	26414.544921875	38312.56640625	24747.05859375	29529.384765625	28895.96875	26997.220703125	26198.35546875	33826.95703125	27668.13671875	38271.18359375	28741.662109375	27400.798828125	26949.220703125	28091.583984375	27691.43359375	28097.607421875	28634.724609375	42602.83984375	30016.21875	29064.099609375	28583.9296875	30004.2734375	29077.3359375	28293.107421875	26482.033203125	29954.693359375	27140.060546875	27828.15625	27928.609375	24501.05078125	32955.98828125	28595.408203125	30689.181640625	29332.966796875	26537.03515625	38125.30078125	23977.6953125	29039.740234375	28461.88671875	25804.568359375	27188.693359375	33934.53125	27544.966796875	37115.9375	28347.53515625	26610.466796875	27494.876953125	29012.6875	27670.291015625	25919.595703125	27089.15234375	44535.55078125	29888.05859375	28998.556640625	27716.69921875	29488.1484375	28770.2734375	29250.83203125	26644.650390625	30281.091796875	27414.146484375	28443.75	28734.431640625	25948.333984375	32859.4140625	28443.48046875	27341.189453125
1500	1800	28504.421875	26052.775390625	26759.611328125	23677.556640625	30644.802734375	20588.99609375	29114.384765625	28976.708984375	24576.96484375	35374.57421875	27158.986328125	18585.86328125	28817.767578125	28623.818359375	33226.5546875	26238.0390625	26090.33984375	23070.04296875	31465.548828125	21434.267578125	28611.328125	30157.701171875	37162.9375	26346.673828125	26384.669921875	30297.689453125	33145.37890625	7345.625	10556.3095703125	22423.060546875	29382.64453125	18535.818359375	10645.6875	26955.50390625	27438.185546875	24171.8828125	35989.57421875	23385.138671875	26711.8984375	26463.822265625	25061.583984375	24357.712890625	31143.609375	25337.76953125	35524.125	26088.814453125	25306.498046875	24854.7109375	26002.330078125	25264.28125	26054.107421875	26502.880859375	39855.30078125	27800.708984375	26190.484375	26492.966796875	27737.03515625	27001.736328125	26171.025390625	24212.736328125	27363.255859375	25007.16015625	25306.685546875	24451.955078125	22037.919921875	30988.939453125	26171.041015625	28552.751953125	26700.169921875	23859.529296875	35480.51171875	21961.74609375	26572.990234375	25849.009765625	23603.701171875	25132.84375	31380.900390625	25626.7578125	34586.53125	25775.994140625	23978.04296875	25274.248046875	26485.28515625	24701.0546875	23616.06640625	24323.86328125	41293.76171875	27231.859375	26528.677734375	25393.595703125	27142.947265625	26488.888671875	26434.76171875	24192.646484375	27745.42578125	25118.302734375	26013.734375	25813.275390625	23515.564453125	30732.35546875	25999.9296875	24435.0771484375
1800	2100	25775.921875	24927.888671875	24874.390625	21513.265625	28335.458984375	19090.828125	26542.94140625	28239.509765625	23326.154296875	34278.4375	24473.560546875	17892.1484375	26517.55078125	27732.59765625	31770.5546875	25033.5859375	24515.5546875	21155.16015625	29047.224609375	19691.095703125	26583.416015625	28672.44140625	36093.90625	25474.96484375	24905.330078125	28048.84765625	32639.8203125	7260.21533203125	10490.318359375	20350.087890625	28082.6796875	17085.572265625	10840.302734375	24857.76953125	24935.271484375	22213.31640625	34211.46875	22352.099609375	24899.70703125	24548.189453125	23071.142578125	22392.732421875	29227.716796875	23500.296875	32960.765625	23715.84375	23427.298828125	23144.21875	23970.267578125	23811.505859375	24609.4609375	24870.078125	37174.30078125	25896.15625	24269.158203125	24447.9921875	25673.48046875	24349.833984375	24183.1484375	22101.451171875	25668.236328125	23268.177734375	23654.904296875	23513.931640625	20640.259765625	28750.845703125	24387.447265625	26393.5390625	25283.009765625	21646.0234375	32847.6015625	21266.490234375	24720.384765625	23767.4375	21667.857421875	22862.873046875	29444.078125	23857.859375	32438.919921875	23800.736328125	22224.904296875	22996.75390625	24406.369140625	22804.533203125	21749.28515625	22435.716796875	38842.7890625	25151.494140625	24442.814453125	23793.951171875	25153.556640625	24705.68359375	24453.34375	22144.041015625	25640.62109375	22895.16015625	23666.677734375	24324.91015625	22387.3359375	28522.767578125	23857.310546875	22165.97265625
2100	2400	23772.51171875	23900.572265625	23965.603515625	19849.884765625	26681.19140625	17970.693359375	25100.814453125	26755.8125	22451.51953125	33253.19140625	23249.537109375	16964.978515625	23127.220703125	26009.669921875	30501.642578125	24087.322265625	23475.009765625	19411.498046875	27219.900390625	18397.857421875	24180.5	26211.18359375	34573.30859375	24277.23828125	23256.484375	27156.71875	29781.3984375	7021.50146484375	10388.71484375	18197.25390625	26895.548828125	15863.203125	10964.564453125	23438.89453125	22865.841796875	21002.005859375	32313.060546875	19624.390625	23378.98046875	23113.99609375	21751.927734375	21002.751953125	27590.478515625	22103.703125	31488.388671875	22020.212890625	21853.38671875	21665.3828125	22149.525390625	21791.779296875	22525.052734375	23595.578125	35499.703125	23860.337890625	22141.82421875	22922.330078125	23953.01171875	22264.8203125	22545.478515625	20553.017578125	23840.6953125	21610.12109375	22122.96484375	21631.951171875	19658.224609375	26007.447265625	22375.572265625	25149.658203125	22597.849609375	20331.515625	30802.125	20625.1484375	23202.87109375	22059.287109375	20426.9765625	21720.833984375	27495.552734375	21968.634765625	30336.37890625	21959.583984375	20338.150390625	22090.53125	23094.439453125	21554.0234375	19960.958984375	20782.42578125	36754.5859375	23398.19140625	22499.857421875	22078.580078125	23462.599609375	22309.0859375	22534.828125	20788.927734375	24092.39453125	21127.07421875	21878.197265625	22719.845703125	20467.228515625	26757.005859375	22555.669921875	20203.5283203125
2400	2700	21893.65625	22965.462890625	22803.138671875	18627.154296875	24558.693359375	16905.2421875	22742.849609375	26380.966796875	21411.16015625	32388.171875	22644.92578125	16688.33984375	21106.103515625	24806.93359375	29072.732421875	23120.748046875	22402.912109375	17930.40625	26186.87890625	17548.45703125	22875.384765625	26154.8125	33851.640625	22206.12109375	20596.09375	25885.96484375	30750.349609375	6897.99560546875	10337.6474609375	17393.779296875	25522.671875	14801.099609375	11094.3720703125	21304.298828125	21391.142578125	19430.26953125	30017.75390625	18954.447265625	22193.12109375	21672.466796875	20742.09375	19722.541015625	26142.8359375	20844.474609375	29746.080078125	20745.505859375	20191.99609375	20803.314453125	20963.26953125	20575.58203125	21631.021484375	22081.541015625	33555.83203125	22585.939453125	20891.5859375	21508.36328125	22505.287109375	21106.45703125	21253.611328125	19101.19140625	22720.30859375	20652.947265625	20630.376953125	19677.751953125	17818.408203125	23178.23046875	21187.716796875	23057.697265625	22481.30078125	18468.705078125	29479.05078125	18919.43359375	21985.9609375	20603.263671875	18919.20703125	20211.20703125	26084.701171875	20749.701171875	28659.703125	20657.06640625	18778.59765625	20904.880859375	21577.064453125	19213.98046875	18894.978515625	18876.33984375	34939.734375	21519.73046875	21389.01953125	20521.171875	22093.1640625	21194.056640625	20905.0625	19173.802734375	22834.486328125	19487.9375	20598.40625	20528.23828125	19863.171875	24798.408203125	20713.4453125	18697.2373046875
