time	plasma_radioactivity	metabolite_parent_fraction	whole_blood_radioactivity
187.79999999999998	21013.403644612477	0.9813162297824874	40963.65317319108
325.79999999999995	14490.596321524206	0.971890372452565	34084.890233724895
628.2	12959.631311661049	0.9102663363270362	35171.89654993756
927.0	13192.868753511768	0.9096311326907747	26606.840764766483
1806.0	10650.303913794494	0.8561036899880967	19204.05075806576
2719.7999999999997	8007.0778039723755	0.7752442996742671	14374.364934765843
3600.0	6788.42754020032	0.7246181491464511	11429.002925590741
5406.0	5909.262371513356	0.6695501730103807	8444.568511888885
7221.0	4777.278307665141	0.651685393258427	6484.345650299966
