time	plasma_radioactivity	whole_blood_radioactivity
178.20000000000002	13936.016227169848	17532.369269643983
298.2	9440.415337449791	14436.935852453478
601.1999999999999	10474.263105853302	11119.08427286232
913.2	9373.115376870997	9257.255485386771
1825.2	3065.157554165901	4983.115238303031
2878.2	3561.0312022787602	4745.376759673062
3694.7999999999997	4014.42441005338	4143.210818356093
5482.799999999999	5359.329313327172	3111.787246816249
7255.8	2863.3083348509113	2346.5516366397537
