time	plasma_radioactivity	whole_blood_radioactivity
217.20000000000002	6753.917888499526	10855.402859313654
313.2	6459.092561752262	8960.082972752094
640.8	4345.862629434202	7250.036376235559
937.8000000000001	4052.430334942915	6324.565446746423
1815.0	2526.861010039416	4716.558462980248
2710.2000000000003	2297.428271601381	3704.7195336204995
3634.7999999999997	2060.460543764241	3207.125095041825
5407.200000000001	1805.9170664189955	2762.134207843638
7221.0	1406.5645693214094	2486.749143740061
