time	plasma_radioactivity	metabolite_parent_fraction	whole_blood_radioactivity
175.2	26689.245194975585	0.9977827050997783	43775.10358311418
294.0	20937.856558024174	0.9336927223719677	35455.903174597624
601.8	14296.121125906951	0.9229200305940342	35276.375150367596
904.2	11526.09988776486	0.881405176967776	27208.233463235214
1800.0	9780.02955924904	0.848441475826972	20114.472112967385
2698.7999999999997	9196.643626940833	0.8091814159292035	14413.014707754945
3612.0	8263.501636411742	0.7685611879160267	10938.599771568046
5404.8	6431.5513948211255	0.7522768670309654	7576.643647582979
7237.799999999999	5003.045303093991	0.7413793103448276	6001.902362547758
