time	plasma_radioactivity	metabolite_parent_fraction	whole_blood_radioactivity
178.20000000000002	21861.59753807586	0.9891084440039422	29878.699862352983
297.0	13242.364149297684	0.9412872318996699	21343.771396088196
603.0	8599.348601986518	0.8400362670811476	17384.480273956233
898.2	7229.434695414264	0.7725295911047345	12909.088549186297
1798.1999999999998	5294.365567548587	0.694623800556004	10490.481156401094
2674.2	4449.837308686445	0.6549542483660131	8136.36996075683
3598.7999999999997	4200.964764840122	0.630952380952381	7295.126028393612
5389.2	3719.0467435309556	0.7047872340425532	5666.137128866135
7245.0	3374.846835965226	0.7364705882352941	4588.365251050298
