frame_start	frame_end	highbinding	left_cerebral_white_matter	left_cerebellum_white_matter	left_cerebellum_cortex	left_thalamus	left_caudate	left_putamen	left_pallidum	brain_stem	left_hippocampus	left_amygdala	csf	left_accumbens_area	left_ventraldc	left_choroid_plexus	right_cerebral_white_matter	right_cerebellum_white_matter	right_cerebellum_cortex	right_thalamus	right_caudate	right_putamen	right_pallidum	right_hippocampus	right_amygdala	right_accumbens_area	right_ventraldc	right_choroid_plexus	aircavity	skull	vermis	pons	csf_extracerebral	head_extracerebral	ctx_lh_bankssts	ctx_lh_caudalanteriorcingulate	ctx_lh_caudalmiddlefrontal	ctx_lh_cuneus	ctx_lh_entorhinal	ctx_lh_fusiform	ctx_lh_inferiorparietal	ctx_lh_inferiortemporal	ctx_lh_isthmuscingulate	ctx_lh_lateraloccipital	ctx_lh_lateralorbitofrontal	ctx_lh_lingual	ctx_lh_medialorbitofrontal	ctx_lh_middletemporal	ctx_lh_parahippocampal	ctx_lh_paracentral	ctx_lh_parsopercularis	ctx_lh_parsorbitalis	ctx_lh_parstriangularis	ctx_lh_pericalcarine	ctx_lh_postcentral	ctx_lh_posteriorcingulate	ctx_lh_precentral	ctx_lh_precuneus	ctx_lh_rostralanteriorcingulate	ctx_lh_rostralmiddlefrontal	ctx_lh_superiorfrontal	ctx_lh_superiorparietal	ctx_lh_superiortemporal	ctx_lh_supramarginal	ctx_lh_frontalpole	ctx_lh_temporalpole	ctx_lh_transversetemporal	ctx_lh_insula	ctx_rh_bankssts	ctx_rh_caudalanteriorcingulate	ctx_rh_caudalmiddlefrontal	ctx_rh_cuneus	ctx_rh_entorhinal	ctx_rh_fusiform	ctx_rh_inferiorparietal	ctx_rh_inferiortemporal	ctx_rh_isthmuscingulate	ctx_rh_lateraloccipital	ctx_rh_lateralorbitofrontal	ctx_rh_lingual	ctx_rh_medialorbitofrontal	ctx_rh_middletemporal	ctx_rh_parahippocampal	ctx_rh_paracentral	ctx_rh_parsopercularis	ctx_rh_parsorbitalis	ctx_rh_parstriangularis	ctx_rh_pericalcarine	ctx_rh_postcentral	ctx_rh_posteriorcingulate	ctx_rh_precentral	ctx_rh_precuneus	ctx_rh_rostralanteriorcingulate	ctx_rh_rostralmiddlefrontal	ctx_rh_superiorfrontal	ctx_rh_superiorparietal	ctx_rh_superiortemporal	ctx_rh_supramarginal	ctx_rh_frontalpole	ctx_rh_temporalpole	ctx_rh_transversetemporal	ctx_rh_insula	reference
0	30	1181.775512695312	749.6235961914062	524.6586303710938	852.4286499023438	1055.99072265625	872.4154052734375	1043.424194335938	750.140625	707.538818359375	919.0772094726562	908.6824951171875	676.9788818359375	952.5422973632812	746.8468017578125	690.24072265625	741.278564453125	685.0695190429688	939.8981323242188	909.9776000976562	922.329345703125	1248.966796875	969.9513549804688	825.048828125	1028.267333984375	810.6158447265625	786.5841064453125	1022.042114257812	405.0137939453125	409.7366943359375	1096.831665039062	797.1467895507812	922.2884521484375	259.5742492675781	1016.379089355469	1207.002197265625	1073.322021484375	999.987548828125	763.2080688476562	822.653564453125	931.4476318359375	680.1685180664062	1047.491333007812	824.6376342773438	1005.756896972656	955.528076171875	1352.544067382812	877.3411865234375	1069.143432617188	817.6483154296875	1351.466064453125	1152.46630859375	1054.934692382812	876.6488647460938	1102.080688476562	1150.567260742188	1118.251953125	862.6488647460938	1636.067749023438	1007.851989746094	1063.207885742188	883.373779296875	1235.894165039062	993.18017578125	1215.548950195312	858.8917846679688	1908.053955078125	1725.147705078125	1075.7841796875	1307.112670898438	1030.259521484375	1124.888549804688	738.3259887695312	804.0261840820312	899.3480224609375	760.2737426757812	1151.5458984375	833.7164306640625	1234.2421875	1049.16259765625	1233.262329101562	884.8727416992188	1006.915100097656	987.775634765625	1210.353271484375	1194.648803710938	1185.584716796875	838.5054321289062	1182.477294921875	1175.56982421875	1068.480224609375	941.8722534179688	1417.690185546875	984.7646484375	1110.673095703125	913.1727905273438	1173.481079101562	1058.960205078125	1028.512084960938	842.1577758789062	1876.908447265625	1613.747314453125	950.3595886230469
30	60	15380.1328125	9707.4091796875	9804.9208984375	13357.8779296875	12936.1875	11573.5126953125	14371.0810546875	10875.19140625	10116.708984375	12196.962890625	9846.5009765625	9001.8466796875	14426.5087890625	10277.6044921875	10211.7880859375	9541.2822265625	9871	13389.888671875	13382.19921875	11729.19140625	14328.400390625	10555.1806640625	12029.361328125	10117.1279296875	11885.68359375	11427.0927734375	10540.244140625	4915.1943359375	4889.390625	14306.0107421875	10500.0205078125	11970.6943359375	3499.850341796875	13263.0380859375	13849.701171875	15284.734375	17188.3515625	10519.7001953125	12621.91015625	12990.69921875	11876.4423828125	14650.3212890625	13957.10546875	14470.9501953125	16461.734375	15325.58203125	12647.208984375	11950.5595703125	13561.7509765625	15783.404296875	14887.2314453125	14685.3291015625	15061.7197265625	14398.552734375	15635.9326171875	14705.2900390625	13990.708984375	16059.32421875	14159.66796875	14540.814453125	13401.0791015625	14387.0166015625	13672.79296875	15302.1982421875	11184.693359375	18682.767578125	14604.6953125	13541.5400390625	13933.74609375	14471.7998046875	16625.83984375	11030.8544921875	13333.90625	13474.3349609375	12258.669921875	14971.3408203125	14326.935546875	14193.0927734375	15997.685546875	14597.421875	12848.33984375	12777.369140625	14219.1103515625	15252.833984375	15491.263671875	14654.9052734375	14122.3603515625	14568.7998046875	15337.5732421875	14152.220703125	13705.8720703125	15332.6689453125	14006.5341796875	14519.6875	13411.779296875	14542.98046875	13469.1357421875	16089.3330078125	10607.5166015625	20409.15234375	14302.8583984375	14306.248046875
60	90	31823.306640625	19795.728515625	21771.52734375	27126.244140625	26508.822265625	23881.115234375	29759.578125	21730.72265625	19372.92578125	23210.611328125	21624.330078125	17191.365234375	25765.96875	20067.529296875	19446.212890625	19472.9921875	21345.271484375	27221.083984375	26702.912109375	24538.33203125	29193.806640625	21768.92578125	24109.79296875	20567.123046875	25373.98828125	22497.55078125	20468.328125	8194.390625	9206.4130859375	30143.62890625	22563.6953125	21344.119140625	6807.783203125	26984.81640625	28545.681640625	30924.69140625	33733.56640625	21383.41015625	25720.2578125	26729.267578125	24713.275390625	28942.623046875	28680.009765625	28515.958984375	32557.3046875	28441.732421875	26667.451171875	24903.265625	26791.244140625	29213.26171875	30191.353515625	29047.578125	32492.794921875	27773.595703125	28822.150390625	29037.298828125	28253.791015625	27667.345703125	29517.587890625	28869.291015625	27121.62890625	26772.029296875	27050.4609375	30061.98046875	23162.650390625	33896.35546875	26957.076171875	27205.310546875	28203.9375	28914.556640625	32744.2578125	19925.568359375	25169.7265625	27257.9140625	24309.7265625	28356.03515625	29995.4296875	27514.5546875	30362.244140625	27028.962890625	26104.310546875	23561.4140625	26684.712890625	28533.091796875	29796.638671875	28792.759765625	31460.609375	27127.947265625	28909.841796875	27406.517578125	28528.0625	28012.107421875	29245.572265625	28072.03515625	26512.568359375	26583.5390625	26507.330078125	29769.763671875	21159.17578125	35678.82421875	26045.005859375	29273.689453125
90	120	34862.5	21171.130859375	23039.810546875	28731.5078125	28040.68359375	27944.857421875	32736.07421875	24434.39453125	19531.4375	24159.611328125	22585.162109375	17530.119140625	29100.615234375	22220.677734375	19099.32421875	20875.5703125	22107.416015625	28557.08984375	29433.658203125	26475.509765625	30525.203125	23653.111328125	25108.419921875	20880.73046875	30008.46484375	22815.162109375	23501.013671875	7635.70458984375	9203.177734375	29912.34765625	24244.8828125	21104.47265625	7044.90234375	29001.044921875	28592.85546875	33040.51171875	34649.53515625	20369.578125	27031.236328125	28268.939453125	26184.15234375	31099.83203125	31030.00390625	30826.1796875	34175.32421875	29950.861328125	28360.216796875	24798.765625	27628.66796875	31266.046875	32324.22265625	30571.78515625	34090.47265625	28787.48046875	31145.408203125	30115.13671875	31074.326171875	28158.078125	31069.462890625	30155.34375	28857.576171875	27731.755859375	28446.853515625	32438.533203125	25101.857421875	35906.703125	27818.455078125	29075.97265625	29059.03125	30543.634765625	33484.04296875	21396.765625	27082.525390625	30098.232421875	26414.13671875	29913.26953125	32736.880859375	29430.5546875	32824.96484375	29204.1796875	27562.791015625	25659.677734375	27282.744140625	29689.328125	30621.125	31038.271484375	34289.6484375	28658.611328125	31299.126953125	29161.337890625	30153.83984375	27434.435546875	30523.138671875	29435.560546875	28138.873046875	28255.87890625	29261.5703125	31123.61328125	21927.10546875	34858.41015625	26254.203125	31087.689453125
120	150	34180.92578125	21408.6171875	23376.765625	28838.896484375	27717.638671875	26675.13671875	31707.6328125	25021.78125	20813.033203125	23085.763671875	22550.744140625	17227.52734375	30590.33984375	21899.166015625	19464.90234375	21196.35546875	22768.04296875	29162.896484375	28413.73046875	26254.962890625	31720.220703125	23734.291015625	24671.212890625	21630.615234375	28467.1875	22332.404296875	22415.888671875	7383.38330078125	9272.6494140625	30503.771484375	24079.3046875	20801.806640625	7156.1416015625	29318.76953125	27883.9609375	33180.3515625	36133.19921875	22705.845703125	27498.580078125	28925.630859375	25740.25	29342.55078125	30993.00390625	29373.74609375	33597.734375	29572.423828125	27678.693359375	24326.189453125	28322.685546875	31128.63671875	31163.060546875	30726.951171875	34621.26953125	28969.48828125	30629.2734375	30568.890625	31586.671875	28446.828125	31247.4140625	29983.419921875	28914.529296875	28265.544921875	28746.072265625	32062.642578125	23105.107421875	35124.28125	27530.41796875	28210.95703125	27125.646484375	30770.046875	32337.97265625	21377.56640625	28205.80859375	30284.337890625	26095.484375	29689.390625	32503.990234375	28787.87109375	32446.623046875	28538.93359375	27518.609375	24496.1015625	27336.068359375	29929.146484375	30887.171875	30410.701171875	33946.16015625	28632.8515625	30323.041015625	29283.900390625	30542.59765625	26951.76171875	30984.49609375	29379.275390625	28567.216796875	27543.41015625	28864.857421875	30773.84375	21378.13671875	33538.17578125	26500.666015625	31520.6337890625
150	180	35383.6015625	21369.4765625	22903.328125	28468.67578125	28469.5703125	26947.4453125	33636.78515625	24570.69921875	20349.34375	23852.310546875	22258.939453125	17680.99609375	29717.51171875	22414.72265625	19771.51171875	21068.974609375	23108.7265625	28646.41796875	29491.134765625	26612.064453125	32220.509765625	23740.673828125	26397.447265625	22462.638671875	27466.251953125	22432.5859375	23608.751953125	6983.05224609375	9313.2919921875	28986.2109375	24581.748046875	20699.53125	7304.95166015625	28845.482421875	29065.615234375	32562.12109375	35332.125	20965.248046875	26712.736328125	28570.505859375	26686.4296875	28543.80859375	31395.87109375	30445.41796875	34862.14453125	29018.26171875	27429.56640625	23635.169921875	27517.296875	30217.21875	31527.484375	31033.16796875	34939.62890625	29211.39453125	31912.755859375	29892.220703125	30684.830078125	26940.1484375	31375.234375	29749.220703125	28554.712890625	27620.4921875	29034.2578125	30709.205078125	23302.228515625	32092.39453125	28008.90234375	28389.880859375	28104.208984375	30443.849609375	32856.88671875	21564.24609375	27474.076171875	29720.068359375	26676.771484375	28624.251953125	32555.115234375	27975.798828125	33155.24609375	28645.34375	27819.697265625	25393.80078125	27432.828125	29662.2265625	30551.4765625	30328.4140625	34907.3359375	28585.4765625	31028.6796875	28737.423828125	29712.13671875	26655.609375	30378.44140625	29778.623046875	27627.66796875	27329.9453125	28757.74609375	29405.115234375	20440.197265625	35924.05078125	26316.6015625	30990.998046875
180	240	34763.56640625	21539.02734375	23063.53515625	28941.421875	28583.328125	27339.177734375	31987.146484375	24273.189453125	20871.6953125	24253.5546875	23101.07421875	17599.6953125	28652.751953125	21659.783203125	20101.423828125	21219.48046875	23147.900390625	28598.68359375	29391.982421875	26364.529296875	31680.357421875	23449.630859375	25612.51171875	20853.576171875	27400.626953125	23544.576171875	23310.30078125	7268.75830078125	9577.0439453125	29355.234375	24490.71484375	20535.064453125	7604.4794921875	29266.076171875	27774.369140625	32301.4921875	35337.73046875	23165.70703125	27414.59375	28840.87109375	26498.224609375	30039.26171875	30900.724609375	29385.517578125	33817.91015625	29357.044921875	27614.57421875	24929.8984375	28039.314453125	29869.46484375	30884.513671875	31325.69921875	34642.578125	28621.720703125	30361.978515625	29951.705078125	31199.869140625	27407.50390625	30843.296875	29517.2734375	28809.615234375	27507.5	28606.27734375	29876.61328125	23034.802734375	33323.7890625	27935.54296875	28387.21484375	27792.7890625	29446.8671875	33527.46484375	21356.81640625	27599.751953125	29526.931640625	25732.400390625	29158.314453125	32444.068359375	28441.505859375	32177.61328125	28580.560546875	27536.6171875	25533.43359375	27962.470703125	29215.822265625	29345.3671875	29780.3828125	35168.4140625	28592.986328125	30320.40234375	28350.2109375	30167.880859375	26656.8671875	30264.869140625	29276.87890625	27823.408203125	27359.1171875	28530.203125	30815.451171875	21495.61328125	34566.8671875	26044.091796875	31233.5107421875
240	300	34760.3125	21480.99609375	23083.580078125	28711.7265625	28743.294921875	27449.330078125	32327.685546875	25232.755859375	20892.0859375	24885.361328125	23583.306640625	17821.453125	27340.79296875	23143.498046875	20816.025390625	21173.58203125	23047.359375	28574.046875	29910.419921875	25945.853515625	31725.220703125	23947.71484375	27723.498046875	23702.3203125	26786.419921875	23716.693359375	23920.96484375	7460.64501953125	9745.98828125	28164.189453125	25798.171875	20216.607421875	7933.9580078125	29302.73046875	27162.41015625	31364.7109375	34611.53125	22126.396484375	26901.783203125	28056.650390625	26096.572265625	28551.537109375	30616.521484375	29152.556640625	33764.3828125	28932.671875	27604.619140625	24465.916015625	27122.16015625	29595.724609375	30918.8046875	30261.400390625	34273.68359375	27985.91015625	30070.01171875	29198.923828125	29847.244140625	27719.5078125	30669.787109375	28769.365234375	28248.55859375	27523.81640625	28393.5625	30484.794921875	23285.056640625	33459.41015625	27108.419921875	28919.53515625	27605.529296875	29293.873046875	32817.27734375	22489.021484375	26997.013671875	28754.8515625	25860.83203125	28366.28515625	31858.625	27846.220703125	32287.06640625	27896.73828125	27084.453125	26005.080078125	25893.064453125	28298.255859375	28861.92578125	29465.689453125	34223.11328125	27704.9765625	30023.77734375	27927.197265625	29375.70703125	28126.65234375	29710.16796875	28507.15234375	27191.724609375	27277.365234375	28188.82421875	31012.4375	21525.693359375	32614.345703125	26433.150390625	31130.5703125
300	360	34682.4609375	21417.55078125	24052.783203125	28308.05078125	29360.16015625	27021.716796875	31885.8125	25470.654296875	21435.0703125	25230.302734375	23404.4296875	18082.7421875	31117.43359375	23865.62890625	22332.39453125	21044.990234375	23032.48046875	27877.380859375	30199.09765625	26209.701171875	31860.4609375	24521.7265625	27407.08984375	22657.107421875	27111.5234375	24826.85546875	26283.693359375	7389.61328125	9963.0439453125	28168.62109375	24382.724609375	19785.89453125	8142.7763671875	27922.138671875	27080.34375	30308.197265625	34195.2578125	23991.77734375	26621.875	27675.78515625	26145.70703125	28956.552734375	29810.666015625	29014.802734375	33293.50390625	28334.37890625	26964.87109375	24145.806640625	26891.568359375	29320.42578125	29637.232421875	29099.294921875	34510.32421875	27859.56640625	29478.8203125	28663.1484375	29292.802734375	27423.830078125	29326.453125	28074.974609375	27990.08203125	26926.53515625	27361.845703125	30023.15234375	22464.9921875	32500.904296875	27272.505859375	28120.828125	27935.25390625	27970.826171875	31777.248046875	20792.654296875	26766.724609375	28112.171875	25717.423828125	27216.775390625	31673.072265625	27395.181640625	32023.60546875	27799.37109375	27026.1015625	25584.244140625	25391.28125	28122.8046875	27492.62109375	28249.451171875	33564.23046875	27557.30859375	28955.142578125	27629.533203125	28338.80859375	26890.455078125	28755.673828125	27745.837890625	26668.525390625	26855.447265625	27330.421875	29132.314453125	20914.0390625	33190.609375	25329.302734375	30395.2158203125
360	480	33452.4765625	21166.02734375	23237.162109375	27499.3203125	28809.33984375	25988.76171875	30791.556640625	25269.8515625	21121.228515625	25508.880859375	23430.875	17994.95703125	29124.705078125	23530.423828125	21601.412109375	20717.994140625	23018.666015625	27370.740234375	29779.892578125	25152.662109375	30691.603515625	24556.658203125	26777.70703125	22589.18359375	25910.310546875	24085.611328125	25626.984375	7542.88037109375	9984.513671875	27712.015625	24625.7109375	19305.876953125	8388.255859375	27376.783203125	26709.7890625	29223.404296875	33461.3203125	22389.623046875	26107.45703125	26765.33984375	25472.23046875	26774.126953125	29356.99609375	27973.5390625	32355.078125	27132.771484375	26289.509765625	25026.34765625	26361.2421875	27623.3515625	28332.89453125	28073.818359375	34059.59375	26837.884765625	28279.275390625	27646.130859375	28758.267578125	26334.95703125	28327.9609375	26987.91796875	26667.6875	26030.509765625	26805.142578125	28762.0234375	23233.158203125	30092.193359375	26313.482421875	26706.046875	26233.376953125	27242.642578125	31618.759765625	21437.107421875	26242.060546875	27173.83203125	24725.529296875	27118.931640625	30535.744140625	26230.724609375	30889.154296875	26587.142578125	26033.2578125	25222.013671875	25236.037109375	26871.3046875	27259.525390625	27728.98828125	33062.34375	26619.48828125	28171.4609375	26347.4921875	27806.3359375	25559.447265625	27602.02734375	26651.62890625	25707.595703125	26062.09375	26651.287109375	28374.05078125	21350.505859375	31374.1328125	24889.06640625	29636.384765625
480	600	31722.8984375	20596.24609375	23395.13671875	26980.958984375	28107.578125	24725.9921875	29124.771484375	24133.662109375	21052.103515625	25820.78515625	23618.080078125	17988.955078125	27638.572265625	23113.060546875	22086.916015625	20297.642578125	23012.0859375	26617.64453125	29139.37890625	24066.505859375	29123.50390625	25255.0703125	26726.916015625	22799.486328125	25818.1640625	24201.65625	25933.140625	7652.68017578125	10148.5849609375	26992.36328125	25238.306640625	18409.220703125	8720.158203125	26472.3671875	25564.498046875	27678.65625	32600.74609375	20973.888671875	25066.40234375	25463.689453125	24252.09375	24936.296875	28604.33203125	26924.75	31624.392578125	26138.3125	25168.98828125	23612.296875	24769.623046875	26076.080078125	27058.27734375	26108.443359375	33935.4921875	25629.275390625	26245.646484375	26250.158203125	27131.412109375	25481.42578125	26792.7734375	25417.15234375	25309.65625	25079.92578125	25317.708984375	27321.6484375	22493.181640625	29584.068359375	25373.474609375	26188.783203125	25745.8984375	25698.005859375	30566.41796875	21406.703125	25096.62890625	25967.458984375	23976.689453125	25745.19140625	29736.712890625	25536.71875	30006.171875	25236.228515625	24971.42578125	23985.2890625	23264.99609375	25737.197265625	25127.076171875	26058.541015625	33013.41015625	25387.7890625	26960.9609375	24872.501953125	26244.359375	24781.2578125	25972.140625	25267.025390625	24247.693359375	24698.5	25244.09375	26471.9375	20981.95703125	30356.376953125	24131.029296875	28879.162109375
600	900	29471.9296875	19893.7265625	22531.09375	25243.044921875	27000.93359375	22748.158203125	27756.8203125	24899.822265625	20884.23828125	25714.59375	23410.828125	17560.455078125	27236.9765625	22608.48828125	22565.375	19573.06640625	22524.59375	24968.64453125	28132.33984375	22427.60546875	26944.134765625	23719	27212.005859375	22372.943359375	25004.759765625	23778.41796875	25649.134765625	7492.91845703125	10423.6796875	25617.09375	25014.39453125	17199.560546875	9010.583984375	24312.904296875	24252.126953125	24786.298828125	30334.462890625	20041.474609375	23743.80078125	23156.26953125	22768.369140625	24001.322265625	26425.05859375	24168.189453125	30026.60546875	23951.251953125	23424.7109375	22588.275390625	22488.46484375	24318.099609375	24214.06640625	24378.650390625	31177.03515625	23712.451171875	24237.0625	24048.828125	25128.89453125	23542.37109375	24394.546875	23168.767578125	23366.41015625	23473.990234375	23010.705078125	25038.583984375	21753.79296875	27874.45703125	23984.181640625	23913.509765625	23494.615234375	23263.228515625	28688.111328125	20522.228515625	23697.408203125	23755.078125	22483.689453125	23770.64453125	27982.34375	23328.615234375	28825.306640625	23572.435546875	23208.224609375	23048.93359375	21846.23046875	23043.189453125	23366.552734375	23888.7578125	30920.544921875	23583.33203125	24515.609375	23082.396484375	23984.1640625	23549.859375	23792.404296875	22882.9453125	22540.08984375	22977.41015625	23123.376953125	24264.517578125	20125.875	27569.654296875	23244.462890625	26921.1328125
900	1200	26723.66015625	18803.359375	21734.291015625	22864.197265625	25557.951171875	20677.822265625	25106.96484375	24049.232421875	20407.91015625	24922	23263.642578125	16659.16015625	24499.84375	22051.576171875	21267.71484375	18530.744140625	21536.3828125	22714.6171875	26299.541015625	20450.02734375	24825.890625	23180.859375	27059.076171875	21369.189453125	22748.046875	22872.32421875	25181.50390625	7498.458984375	10646.0048828125	22806.640625	24235.3125	15679.154296875	9325.439453125	22221.67578125	21507.33203125	22213.529296875	27876.076171875	19465.564453125	21568.169921875	20908.9140625	20836.033203125	21494.55078125	24285.20703125	21818.12109375	28291.32421875	21441.998046875	21428.5390625	20510.861328125	20284.8359375	21624.857421875	21702.46875	21895.119140625	28894.138671875	21491.88671875	21975.490234375	21585.462890625	22316.25390625	21290.767578125	21717.9609375	20488.53515625	20809.71484375	21318.857421875	21055.912109375	21209.318359375	20323.60546875	25112.1796875	22024.88671875	21974.23828125	21523.802734375	20692.853515625	26482.92578125	19290.998046875	21776.69140625	21374.96875	20405.478515625	21190.880859375	25654.828125	21266.046875	26448.107421875	21483.609375	20924.130859375	21211.4296875	19237.435546875	20412.330078125	20950.197265625	21309.8125	28911.9140625	21412.9921875	22425.09765625	20644.6484375	21581.123046875	21526.765625	21233.60546875	20139.751953125	20105.9140625	20865.6875	20910.21875	21766.603515625	18623.25	25219.255859375	21170.693359375	24222.58203125
1200	1500	24128.119140625	17957.892578125	20576.880859375	20792.76953125	23914.908203125	18797.166015625	23279.623046875	22316.15234375	19640.30078125	24758.419921875	21764.884765625	16126.4775390625	23089.150390625	21307.138671875	21417.673828125	17623.736328125	20448.63671875	20781.556640625	24980.173828125	18030.900390625	22478.466796875	21940.705078125	25670.00390625	20111.890625	21290.83984375	22272.337890625	24599.33984375	7518.98388671875	10695.0537109375	20305.919921875	23396.560546875	14464.1845703125	9546.494140625	20215.453125	19587.345703125	19990.35546875	26087.611328125	18085.041015625	20066.369140625	18949.357421875	19084.140625	19931.419921875	22484.71875	19794.083984375	26087.41796875	19578.1484375	19453.009765625	18617.783203125	18071.833984375	19522.330078125	19860.830078125	20472.41796875	27942.96875	19754.3671875	20128.11328125	19985.076171875	20504.736328125	20049.642578125	19602.603515625	18458.69921875	18986.232421875	19394.40234375	19093.23046875	19760.91015625	18936.421875	22877.798828125	20370.8359375	20074.541015625	20214.30859375	18479.392578125	24152.69921875	17836.703125	19988.513671875	19428.392578125	18629.95703125	19300.41796875	23590.755859375	19246.408203125	24680.236328125	19525.193359375	19144.98828125	19262.77734375	17727	18884.07421875	19386.57421875	19547.01171875	27039.396484375	19568.5546875	20013.990234375	19076.50390625	19673.5703125	19728.841796875	19174.38671875	18196.943359375	18297.357421875	19003.67578125	18709.25390625	19356.65625	17145.703125	22285.578125	19574.9453125	21941.7685546875
1500	1800	22125.017578125	17162.68359375	19676.462890625	19201.001953125	22329.744140625	17658.892578125	21412.35546875	22206.16015625	18860.37890625	23952.888671875	20650.1875	15276.4521484375	22088.197265625	21149.107421875	20286.056640625	16861.154296875	19574.67578125	19015.13671875	23229.583984375	16928.193359375	21033.259765625	21363.111328125	25224.732421875	19638.234375	20547.814453125	21188.947265625	23687.97265625	7435.95263671875	10760.4990234375	18405.087890625	22609.65625	13491.06640625	9681.953125	18719.724609375	18714.150390625	18114.546875	24336.517578125	17458.857421875	18622.625	17418.75	17519.810546875	17738.099609375	20916.369140625	18456.427734375	24227.400390625	18181.80859375	17687.65625	18122.943359375	16823.412109375	18092.0859375	18249.376953125	18237.056640625	25632.587890625	18003.5	18343.341796875	17936.953125	18458.103515625	18075.9765625	18009.619140625	16859.568359375	17517.03515625	17724.236328125	17224.744140625	17764.80859375	17379.19140625	21566.5859375	18633.755859375	18447.224609375	18592.4921875	16851.140625	22686.693359375	17094.79296875	18255.716796875	17885.392578125	17318.099609375	17443.037109375	22221.40234375	17844.94140625	23358.548828125	17690.884765625	17419.837890625	18230.83984375	16502.970703125	17163.029296875	17658.966796875	18073.400390625	25360.0390625	17846.318359375	18679.544921875	17451.59375	17520.431640625	18306.771484375	17521.83984375	16341.7109375	16619.0234375	17860.353515625	17292.201171875	17852.396484375	16445.556640625	20354.3203125	18259.23046875	20024.751953125
1800	2100	20083.9921875	16415.974609375	18566.28515625	17575.802734375	21190.587890625	15908.046875	19880.310546875	20930.556640625	18248.349609375	23478.599609375	20125.966796875	14562.3388671875	20329.080078125	20029.0859375	19329.234375	16116.7080078125	18605.1953125	17665.947265625	21627.109375	15048.40625	19532.06640625	20608	24900.0546875	19158.41796875	18289.25	20877.001953125	22171.87109375	7446.09716796875	10837.14453125	17815.55078125	21838.84765625	12632.1572265625	9824.42578125	17125.287109375	16724.20703125	16625.845703125	22375.853515625	16226.6806640625	17610.25390625	16084.537109375	16466.279296875	17078.564453125	19475.17578125	17053.58203125	22774.078125	16508.958984375	16696.646484375	16538.625	15592.1640625	16424.22265625	16886.802734375	16695.857421875	23864.62890625	16438.517578125	17086.322265625	16878.134765625	17099.12890625	17168.80078125	16307.2109375	15313.5732421875	16110.0341796875	16655.654296875	15958.0478515625	16584.318359375	17082.4921875	19773.0625	17705.748046875	16809.14453125	16601.83203125	15617.4541015625	21043.974609375	15934.2216796875	17063.326171875	16331.0517578125	16107.3076171875	16295.181640625	20740.216796875	16946.7890625	21560.91015625	16743.783203125	16228.16015625	16733.259765625	15084.2646484375	15604.1943359375	16763.755859375	16506.08203125	23340.11328125	16604.548828125	16533.541015625	16256.216796875	16535.541015625	16997.28515625	16168.1669921875	15077.5673828125	15265.7900390625	16121.03125	15802.455078125	15788.64453125	15473.0546875	18904.361328125	17006.97265625	18316.513671875
2100	2400	18961.5703125	15760.705078125	18106.08203125	16521.244140625	20299.359375	15172.740234375	18623.423828125	20367.228515625	17294.966796875	22137.830078125	19569.494140625	13900.7314453125	18661.40234375	18225.265625	18805.21484375	15443.001953125	17909.1484375	16452.484375	20792.505859375	14616.08203125	18073.326171875	19430.595703125	24423.294921875	18254.462890625	17327.958984375	19711.587890625	21451.490234375	7382.296875	10903.34375	16513.013671875	20840.326171875	11962.4521484375	9880.943359375	16249.5126953125	16251.76953125	15539.064453125	20903.482421875	14954.3056640625	16253.8037109375	15036.4541015625	15021.736328125	16001.53515625	18494.962890625	16000.8759765625	21338.64453125	15644.310546875	15383.3681640625	15584.458984375	14335.37109375	15237.73828125	15872.1240234375	16052.1767578125	22913.8359375	15486.2119140625	15434.3291015625	15672.4033203125	15917.109375	16394.95703125	15351.591796875	14232.666015625	14975.0439453125	15537.1787109375	14966.287109375	15335.84375	15782.7822265625	18471.451171875	16698.64453125	15495.919921875	15529.658203125	14536.455078125	19560.234375	14813.6416015625	16134.1962890625	15147.291015625	15274.1669921875	15033.7470703125	19275.341796875	15859.291015625	20269.458984375	15522.705078125	15090.31640625	16223.06640625	14033.7119140625	14539.6044921875	15356.9140625	15189.3720703125	21756.06640625	15185.7822265625	15852.40234375	15207.046875	15379.158203125	14952.603515625	14868.8876953125	14052.3935546875	14219.9228515625	15078.115234375	14875.462890625	14742.9912109375	14178.07421875	18004.16015625	15994.0771484375	17010.37109375
