time	plasma_radioactivity	metabolite_parent_fraction	whole_blood_radioactivity
1140.0	3121.904877763753	0.7867647058823529	3026.560941797177
1855.8	2980.779051839657	0.766016713091922	2687.060926635132
3690.0	3267.6298935505542	0.6	2741.6211789790013
5476.2	3229.5039863122306	0.625	2831.2995477275927
