time	plasma_radioactivity	metabolite_parent_fraction	whole_blood_radioactivity
192.0	14567.209360207944	0.9688901891944607	11667.073637467769
309.0	8445.62465034684	0.9714702909131754	6991.10460518272
604.2	7654.479990493784	0.8488007286711872	6451.21431755524
913.2	6401.316257674935	0.7485311398354877	5559.7695171347
1810.2	4543.1595496743375	0.583044982698962	3985.4185251368162
2716.2000000000003	3561.5510271356247	0.48355663824604134	3228.2252668577594
3600.0	3036.788364003283	0.4009433962264151	2714.7610701461263
5397.0	2704.9676658570484	0.34782608695652173	2459.9202165309102
7210.2	2477.9300933438626	0.2411126145435172	2160.1407744378203
