time	plasma_radioactivity	metabolite_parent_fraction	whole_blood_radioactivity
177.0	17966.78585486927	0.9919524813182602	34852.397638675706
294.0	11944.497187047064	0.9604907975460122	34734.752053038574
598.2	9374.20248030495	0.9049163179916317	26144.39649000125
903.0	8234.16277389418	0.8806339772164438	22451.113403535757
1801.2	6378.697158293455	0.8145301239729642	15100.792010447822
2698.7999999999997	4524.470998681776	0.7484704282800816	11641.686189493086
3682.8	3366.0518471732917	0.749741468459152	7592.960058148341
5404.2	2501.1278232223494	0.7857142857142857	5128.146038844128
7185.0	2391.4914104360137	0.8157894736842105	4370.17362917263
