time	plasma_radioactivity	metabolite_parent_fraction	whole_blood_radioactivity
633.0	9189.622678031623	0.9793076522644456	15174.22315341966
1831.8000000000002	6831.5599907184	0.8831024930747923	10004.901996040264
3640.2000000000003	2910.4667679900963	0.8417391304347827	6614.360557880701
5443.8	2498.5115621061723	0.8109756097560976	4724.291825491598
