time	plasma_radioactivity	metabolite_parent_fraction	whole_blood_radioactivity
688.2	5250.708049912023	0.9462883202432227	26557.279119037332
1864.8	4732.590303378733	0.7705278592375366	13737.098873016505
3667.8	4244.741481262384	0.6746506986027945	8875.546498035694
5530.2	4132.559230459389	0.5833333333333334	6813.16042533292
