time	plasma_radioactivity	whole_blood_radioactivity
198.0	44575.81669564098	38802.547350849585
306.0	24305.765678872813	30847.291235331595
610.8	18402.14929828182	25533.93214560626
925.8	16423.117818786883	22261.951983453462
1804.8	12937.553678416734	15600.166286560505
2731.2000000000003	9264.030789180206	12322.229638782443
3598.7999999999997	7442.650527767096	10859.41242081137
5413.2	5428.010568512362	8148.7766813432045
7249.8	5143.990551380662	6713.502774639325
