time	whole_blood_radioactivity
0.0	531.5539470707985
1.061	486.6078143058763
2.133	554.8435534943874
3.194	759.1199430386696
4.256	521.5005970843879
5.327	499.1295128552279
6.389	533.4820499340768
7.459999999999999	601.9513849966452
8.521999999999998	613.6781891793732
9.593	511.7089785483048
10.655	398.2354779763394
11.726	557.8681645530025
12.788	672.1232057908456
13.859	695.3289451774482
14.921	684.341856999752
15.993	764.6461345984419
17.054000000000002	890.720466252067
18.116	788.4193950113826
19.187	1040.4307899095534
20.249	1121.138481386121
21.32	1156.1605659640734
22.382	1133.948558543193
23.453000000000003	1008.5662378746322
24.515	1055.0449451655613
25.576	1124.5281805628308
26.648	1297.43781672339
27.709	1321.1954914225444
28.781	1505.928593626683
29.842	1288.2858608270333
30.914000000000005	1576.8073150326866
31.976000000000003	1727.4707316756558
33.047000000000004	1601.7614389278024
34.109	1741.0905614758246
35.17999999999999	1626.7736215635862
36.242	1720.107768922817
37.303	2206.2965712307214
38.375	1687.5133598725906
39.436	1977.6599026949466
40.508	1816.8496579001837
41.569	2281.1124722146237
42.641	2444.7067373287805
43.702000000000005	2654.855758352694
44.774	3213.283605379582
45.835	3830.402065189915
46.897	4877.992108433351
47.969	5020.412370034058
49.03	6128.121865987659
50.102	7237.207155467473
51.163	8440.725165670243
52.235	9564.202250181033
53.296	11318.42397405516
54.358	11441.872802879992
55.429	12452.48773354074
56.491	14199.944863935852
57.562000000000005	15155.02490163483
58.624	15234.298957162144
59.695	16600.610075126995
60.75699999999999	17886.54203436293
61.818	19291.13437959444
62.89	20041.218302473688
63.952000000000005	20909.359588371637
65.013	22693.787917342244
66.08500000000001	22284.89393586414
67.146	24037.04777015507
68.218	24416.07413366986
69.27900000000001	25536.43664486989
70.351	26187.51739197103
71.41199999999999	27498.710708686365
72.47400000000002	29259.274060072607
73.545	29123.75544558693
74.607	29967.15532872355
75.678	30504.780666372113
76.74	31491.759233658122
77.811	31215.390598547252
78.87299999999999	32121.18199135429
79.935	33513.23727829028
81.006	33948.01773615062
82.06800000000001	32617.773965590597
83.13900000000001	34107.631671915755
84.20100000000001	35314.406931836005
85.272	34825.45402168141
86.33399999999999	35642.16307858624
87.40500000000002	34487.28934174231
88.467	35007.47910336611
89.538	36325.65315946436
90.6	35609.38069546615
91.661	36536.16142978132
92.733	36558.364504731915
93.794	36019.78029576271
94.866	36101.34120354941
95.928	37794.887073237995
96.999	38845.427229643676
98.061	37996.02857578726
99.132	38318.17764303233
100.194	36904.796299264744
101.265	38268.70317288333
102.327	37752.42179933147
103.398	37559.4834890501
104.46	38374.055320732106
105.521	36392.03220281705
106.593	37122.968117071374
107.664	37001.25234925642
108.726	36229.65141877678
109.797	36841.39892340108
110.859	36285.51527670778
111.931	36283.46542559634
112.992	36281.17351080436
114.054	36773.54351836379
115.125	35733.52204531453
116.187	34124.31523687155
117.258	34362.59455315034
118.32	34105.11957059352
119.391	33786.98797029301
120.463	32996.23674963112
121.524	33137.242726516335
122.59599999999998	31738.947552909172
123.657	31745.906730736402
124.719	31595.087425035523
125.79000000000002	31760.01373524357
126.852	30709.70257307015
127.924	30217.64415477789
128.985	28593.229209046527
130.057	29475.01087673268
131.118	27433.97285790668
132.18	27474.867719061393
133.251	27454.9583049804
134.313	26446.340473446344
135.384	26535.666165576768
136.446	25732.97602473737
137.517	24941.663233712145
138.579	24944.445216985343
139.64	25253.232977777665
140.71200000000002	25268.579401775387
141.773	23666.007960361752
142.845	23447.38754348509
143.906	23093.370679317857
144.97799999999998	22567.16767624307
146.04000000000002	21905.05116236337
147.101	22225.54855389613
148.173	21513.33367387799
149.23399999999998	20713.960969191903
150.306	20751.179351363764
151.367	20763.660433356796
152.42899999999997	19296.552905849494
153.5	20418.64816345028
154.572	18875.58039095872
155.633	19035.163061064733
156.705	19306.29035699468
157.76600000000002	18427.448503240805
158.82799999999995	18351.91837007456
159.899	17582.970895401108
160.961	17246.64118904951
162.023	17938.875010616666
163.09400000000002	16783.713771146748
164.156	17265.48481482553
165.227	16232.702544018886
166.289	16491.02103952618
167.36	16302.075856537764
168.422	16685.16000707259
169.49300000000002	16222.1946699968
170.555	16991.8608669115
171.626	16528.509514994672
172.68800000000002	16201.704210096133
173.759	16648.341381443523
174.821	16695.8267838185
175.892	16143.683398420013
176.954	16378.449794761196
178.026	16576.056470435098
179.08700000000002	16861.41699387246
180.149	16395.60699689103
181.22	17395.660144550904
182.282	16565.923284019245
183.353	16952.422682663506
184.415	15794.956870840915
185.486	16470.397855379946
186.548	16480.31354212593
187.609	16553.117637522908
188.681	16286.284973062031
189.742	17353.940528080584
190.814	16936.044928546384
191.87500000000003	16303.182388204143
192.937	16477.010527728115
194.009	16613.26423913664
195.07	16686.414784655037
196.142	16292.096576469474
197.203	15859.253052783859
199.216	16371.148872324035
200.278	16355.666826983932
201.349	16682.513972074772
202.411	17187.24560926386
203.472	16715.28927053378
204.544	16369.856801806962
205.605	16252.629731625428
206.677	16554.951863012324
207.738	16157.783805085515
208.8	15492.804124535509
214.338	13102.369054940207
215.409	11819.736506992953
216.471	11366.564044612944
217.542	12422.53609487243
218.604	12660.437364460435
219.675	12821.83222871966
220.737	11611.961576557529
221.799	12208.877067281524
222.87	10907.40133511524
223.932	10747.048417166876
225.003	10843.50762383538
226.065	10798.613778995083
227.136	10663.673714176377
228.198	10682.964615866169
229.259	10998.480827843181
230.331	11778.361197076956
231.392	11024.678187540014
232.464	9986.299993191962
233.525	10844.363524637838
234.587	11341.765858651383
235.658	11090.140402448642
236.72000000000003	10980.416830101787
237.791	10805.906541654096
238.853	10540.483104870567
239.925	10235.923797191504
240.986	11175.535757092224
242.048	10896.869570746388
243.119	10643.87863799071
244.181	11130.848292298635
245.252	10513.796295902212
246.324	11131.370612897448
247.385	10136.160283500849
248.457	11196.913011574135
249.518	10604.382679889895
250.59	10741.181117429602
251.651	10199.824867556665
252.72300000000004	9971.102062214733
253.784	10029.33544066427
254.846	10283.644366216648
255.918	10211.444751501316
256.979	10753.977153211328
258.051	10380.883578193083
259.112	9706.004201425589
260.174	11074.913832746033
261.24499999999995	10124.289202432092
262.307	11416.365767624184
263.378	10596.092766834703
264.44000000000005	10155.77547756933
265.511	10083.06474989137
266.57300000000004	10325.90746588958
267.644	9766.210312674999
268.706	10509.606088810795
269.777	9633.065631050216
270.839	10126.741922735362
271.91099999999994	10383.579581513372
272.972	10851.888298523641
274.044	9947.004505303523
275.105	10653.529532396757
276.177	10130.971255243798
277.238	10798.75296132875
278.31000000000006	10818.557186239479
279.37100000000004	11076.80983418228
280.433	11123.251662733885
281.504	9949.348900798566
282.566	10592.480393021595
283.637	10452.811168041777
284.699	10379.365042261648
285.76000000000005	9773.907519453449
286.832	10006.047682345448
287.894	10291.664057076803
288.965	10018.150303319462
290.027	10397.422340289035
291.098	10430.411215554666
292.16	9702.652299780555
293.231	10189.296279326352
294.293	10155.343666590714
295.36400000000003	9840.619555943309
296.42600000000004	10007.085388802174
297.487	9731.98772360064
298.559	10233.503473789078
299.62	10507.712443963475
300.692	10661.617227168845
301.753	10184.949208497477
302.825	10271.700976572582
303.88699999999994	9646.433107518948
304.948	9813.553779543612
306.02	10142.350941221233
307.081	9542.774401964358
308.153	10545.180672280845
309.21400000000006	9365.655983650626
310.276	9681.423564080365
311.34700000000004	10996.031633781571
312.409	10084.638936013636
313.48	9455.867692582779
314.542	9894.088892311667
315.613	10373.461175758874
317.065	10138.35528928233
318.137	9670.473560000202
319.199	10191.280396559789
320.27	10319.512035829644
321.332	9593.018873611114
322.403	9978.995327369428
323.46500000000003	10433.309246566958
324.536	9556.080074921716
325.598	9765.855173437698
326.659	9635.632477321617
327.73100000000005	10267.912430029932
328.79200000000003	9429.269282878744
329.854	9816.70681392057
330.925	10095.518730945952
331.987	9937.786870443933
333.058	10763.366082533761
334.11999999999995	10250.487906466045
335.19199999999995	9613.962867670887
336.253	8661.875940455542
337.32499999999993	9830.97370916427
338.386	10001.291474769436
339.458	9321.933021601279
340.519	9629.313173645596
341.581	9662.560773471854
342.65200000000004	9215.219718420127
343.714	9729.215254335972
344.785	9652.62115909352
345.847	9644.673883683348
346.918	9196.2249691058
347.98	9187.986287866483
349.04099999999994	9193.512528484809
350.113	9599.0602836956
351.17499999999995	9604.839213607595
352.24600000000004	9638.287510610278
353.308	9243.404366493578
354.369	9096.888298822998
355.44100000000003	9794.089475781955
356.502	9952.239845888065
357.574	8891.823074316864
358.635	9576.2387660417
359.70700000000005	10136.736016768687
360.768	9601.696804373645
361.84	10176.764142140919
362.901	10196.777163768547
363.973	9355.042697383373
365.034	9527.57585470558
366.106	10270.983857399673
367.168	10569.60702608552
368.239	10046.52627942254
369.301	9759.781162761674
370.372	10198.18795565139
371.434	9548.23538159952
372.495	10056.819262090507
373.567	9713.523485210599
374.628	9495.610633113009
375.7	9809.231474444132
376.761	9885.139441214349
377.833	10171.34910867019
378.894	10051.299862490278
379.956	9524.325475653717
381.027	9782.747113669335
382.089	9957.164088601665
383.16100000000006	9077.908230894282
384.222	9687.988751683704
385.294	10439.558936814326
386.355	9798.252311710814
387.427	10733.915981166994
388.488	9542.299045583652
389.55	9576.25072756933
390.621	10075.985663732865
391.693	9884.420445012915
392.754	10130.5601578314
393.816	9217.715079090074
394.887	9562.8198677661
395.949	9752.588075597607
397.02	9815.16238025648
398.082	10515.490600912153
399.144	10025.508926980472
400.215	10996.445137109971
401.287	9867.320962290762
402.348	9788.019057381858
403.41	9779.697070320652
404.481	10425.683438493174
405.543	9193.787412779197
406.614	10167.723937157778
407.676	10216.592468926188
408.747	9823.578759302802
409.809	10371.61292669797
410.88	9835.46067852871
411.942	9484.292598977996
413.003	10204.605269230075
414.075	10253.709170550183
415.13700000000006	11061.21193233296
416.208	9507.249558617219
417.27	10558.827198690567
418.341	10149.509335147586
419.403	9926.11412347422
420.474	9874.72939045057
421.536	9693.975494355876
422.607	10317.778113014847
423.669	9964.519338584534
424.74	9855.468774817324
425.802	10048.55276676674
426.863	10457.932860492825
427.935	10363.39282011311
428.996	9634.089269535016
430.068	9481.202327200865
431.14	9342.565831324697
432.201	9550.464165938489
433.263	9512.842218434294
434.334	9388.423930881072
435.406	9741.523900468592
436.467	9906.70137078965
437.539	9825.767987669169
438.6	9628.663834348188
439.662	10084.262210277133
440.733	10046.829094307132
441.795	9834.968398413212
442.866	10102.589340960803
443.92800000000005	9279.614906671355
444.989	9532.60744415516
446.061	10557.77146018846
447.123	9937.565515145167
448.194	9637.417752637532
449.256	9759.930452989778
450.327	10393.556803558466
451.389	9158.263210838255
452.46	10376.897431686239
453.522	9417.950916090833
454.593	9423.668877139677
455.655	9956.44830263342
456.716	9610.8213307514
457.788	9308.81138469263
458.8490000000001	9402.420473262659
459.921	9041.202420543244
460.982	8929.151539935616
462.054	9654.63423179524
463.115	10366.226798605474
464.177	9666.257027312713
465.249	9436.584650114042
466.32	9722.195304314668
467.382	8976.335537073428
468.443	8568.781168131547
469.515	9120.008345199098
470.576	8815.404107817354
471.648	8082.004018019409
472.709	8500.817923183748
473.781	8165.744526516093
474.842	8910.75157122994
475.914	8545.893945778538
476.975	8299.097114445276
478.037	8645.1544065113
479.108	9451.64120634227
480.1700000000001	8566.530940962179
481.242	9061.974815265685
482.30300000000005	9007.96673822718
483.375	9400.156177644269
484.4460000000001	9346.332554296405
485.5079999999999	9054.12623451258
486.569	9342.683587011074
487.641	9348.36114852286
488.70200000000006	9562.844732191472
489.774	9747.788493155267
490.835	9469.854532120853
491.907	9072.073960540061
492.968	9959.860465252174
494.04	8723.914908608227
495.10100000000006	9358.021041078495
496.163	9423.582249034012
497.235	9534.24563860636
498.296	9494.980235341016
499.36800000000005	9290.623167846281
500.429	9296.211140826555
501.501	9572.350749010764
502.5619999999999	9608.180724043254
503.634	9614.019628526003
504.695	8836.97001593946
505.75700000000006	9113.433623755289
506.828	9405.347474367325
507.89	9411.009783202351
508.9509999999999	9643.03242793335
510.023	9603.592546999576
511.08400000000006	9503.60526707555
512.1460000000001	9191.845233573476
513.2180000000001	9590.742330068713
514.2790000000001	9339.191123251465
515.351	9980.983897267219
516.412	8910.999109485476
517.484	9341.005494599054
518.5450000000001	8800.392511394215
519.607	10050.633085494053
520.678	9509.843226832596
521.74	9044.35019963356
522.811	8806.484256959926
523.873	9131.384488803056
524.944	9593.774888821517
526.0060000000001	9812.873984246648
527.077	9178.473126421104
528.1390000000001	9412.836030557284
529.211	9800.183299323158
530.272	9286.752764146802
531.334	9200.642915360175
532.405	9359.156332318795
533.467	8569.089650803444
534.538	9477.655171390765
535.6	9483.361011686255
536.6610000000001	9044.504517932028
537.733	9234.068690037688
538.794	9853.551062669694
539.866	8984.159441181913
540.9270000000001	9465.93309709882
541.9989999999999	9425.557218751286
543.0600000000001	9323.528822023663
544.132	8975.116394821029
545.194	9596.678846788423
546.265	9232.585371584364
547.327	9346.101945612132
548.398	9151.160621813673
549.4599999999999	8816.962081338037
550.521	9455.737794363085
551.593	8982.225879607598
552.654	9003.097602667855
553.7259999999999	8807.34647022768
554.7869999999999	8905.57147211448
555.849	9437.840237124183
556.92	9024.8898181795
557.9820000000001	9232.031327275277
559.0529999999999	9517.09431837113
560.115	9165.523821086696
561.187	8751.399602869786
562.2479999999999	9969.842175498194
563.32	9509.010026155034
564.381	9296.715912429967
565.453	9395.856650271417
566.5139999999999	9931.609524657419
567.576	9531.972795802776
568.6469999999999	9600.200310669756
569.7090000000001	9652.83836558097
570.7800000000001	9330.49071862432
571.842	9617.598653690162
572.913	9952.043021846237
573.975	10114.607327077581
575.046	9447.07615485175
576.108	9201.943988008687
577.169	10274.103063899172
578.241	9213.074020949412
579.303	9799.692059543937
580.374	9444.215889470901
581.436	9559.9670079195
582.5070000000001	9140.975431646453
583.569	9461.331543549615
584.64	9325.30598791933
585.7020000000001	8984.162943089961
586.763	9021.108930273582
587.835	7890.376809815973
588.896	8874.11778596868
589.9680000000001	8753.11187201274
591.029	9058.754086595012
592.1010000000001	8858.612736662466
593.162	8832.283939349763
594.234	8235.804107091537
595.2959999999999	9302.552843823623
596.357	9181.290779232324
597.429	8456.998013311852
598.49	8795.487548605495
599.5619999999999	9070.894227857028
600.623	8392.842070219045
601.685	9034.098972620177
602.7560000000001	8673.544395727475
603.818	9220.193748761709
604.879	8715.8539386304
605.9509999999999	9008.13542015699
607.012	9252.851367185165
608.084	8651.884639558464
609.155	9296.04063169258
610.217	8614.402775711755
611.279	8587.605279154955
612.3499999999999	8528.813007515979
613.4119999999999	8373.83602807258
614.483	9324.151972111302
615.5450000000001	8993.124379210754
616.616	8757.98055217352
618.629	9346.085699617857
619.691	8371.550042047305
620.762	9132.298218863985
621.8240000000001	8928.656443167543
622.895	9561.877365827966
623.957	8134.099536686085
625.0279999999999	9251.104609503389
626.09	9321.180498821781
627.161	9068.65729318996
628.223	8670.46401697087
629.294	9564.303662244762
630.3560000000001	8632.454274490763
631.428	9090.613349289348
632.489	9096.081023615627
633.551	8777.658313756918
634.6220000000001	8556.12069460467
635.684	9501.714472083588
636.755	10724.31135484091
638.007	10163.667077559992
639.079	9536.259049422795
640.1399999999999	10078.427177780928
641.2119999999999	9141.158291354877
642.2729999999999	6282.223056084756
643.3349999999999	5015.77612832626
648.1220000000001	4947.755554820326
652.898	3749.5276491046916
