time	plasma_radioactivity	metabolite_parent_fraction	whole_blood_radioactivity
207.0	27459.907407302446	0.9523988428447985	35223.77836612308
574.8	15593.668686965473	0.8874658945375578	32832.028058906144
889.8	13608.080285233405	0.8451573103022825	28144.435985775606
1795.2	8366.653656234745	0.7625797306874557	19426.448968393477
2695.8	6410.71573618367	0.7331480194579569	15406.116966947027
3598.7999999999997	5535.8056663956895	0.7202288091523661	12569.319555504386
5398.2	5081.529366615082	0.8126195028680688	9232.72931807308
7228.8	4255.200258292691	0.8301886792452831	7625.623517418646
