frame_start	frame_end	highbinding	left_cerebral_white_matter	left_cerebellum_white_matter	left_cerebellum_cortex	left_thalamus	left_caudate	left_putamen	left_pallidum	brain_stem	left_hippocampus	left_amygdala	csf	left_accumbens_area	left_ventraldc	left_choroid_plexus	right_cerebral_white_matter	right_cerebellum_white_matter	right_cerebellum_cortex	right_thalamus	right_caudate	right_putamen	right_pallidum	right_hippocampus	right_amygdala	right_accumbens_area	right_ventraldc	right_choroid_plexus	aircavity	skull	vermis	pons	csf_extracerebral	head_extracerebral	ctx_lh_bankssts	ctx_lh_caudalanteriorcingulate	ctx_lh_caudalmiddlefrontal	ctx_lh_cuneus	ctx_lh_entorhinal	ctx_lh_fusiform	ctx_lh_inferiorparietal	ctx_lh_inferiortemporal	ctx_lh_isthmuscingulate	ctx_lh_lateraloccipital	ctx_lh_lateralorbitofrontal	ctx_lh_lingual	ctx_lh_medialorbitofrontal	ctx_lh_middletemporal	ctx_lh_parahippocampal	ctx_lh_paracentral	ctx_lh_parsopercularis	ctx_lh_parsorbitalis	ctx_lh_parstriangularis	ctx_lh_pericalcarine	ctx_lh_postcentral	ctx_lh_posteriorcingulate	ctx_lh_precentral	ctx_lh_precuneus	ctx_lh_rostralanteriorcingulate	ctx_lh_rostralmiddlefrontal	ctx_lh_superiorfrontal	ctx_lh_superiorparietal	ctx_lh_superiortemporal	ctx_lh_supramarginal	ctx_lh_frontalpole	ctx_lh_temporalpole	ctx_lh_transversetemporal	ctx_lh_insula	ctx_rh_bankssts	ctx_rh_caudalanteriorcingulate	ctx_rh_caudalmiddlefrontal	ctx_rh_cuneus	ctx_rh_entorhinal	ctx_rh_fusiform	ctx_rh_inferiorparietal	ctx_rh_inferiortemporal	ctx_rh_isthmuscingulate	ctx_rh_lateraloccipital	ctx_rh_lateralorbitofrontal	ctx_rh_lingual	ctx_rh_medialorbitofrontal	ctx_rh_middletemporal	ctx_rh_parahippocampal	ctx_rh_paracentral	ctx_rh_parsopercularis	ctx_rh_parsorbitalis	ctx_rh_parstriangularis	ctx_rh_pericalcarine	ctx_rh_postcentral	ctx_rh_posteriorcingulate	ctx_rh_precentral	ctx_rh_precuneus	ctx_rh_rostralanteriorcingulate	ctx_rh_rostralmiddlefrontal	ctx_rh_superiorfrontal	ctx_rh_superiorparietal	ctx_rh_superiortemporal	ctx_rh_supramarginal	ctx_rh_frontalpole	ctx_rh_temporalpole	ctx_rh_transversetemporal	ctx_rh_insula	reference
0	30	1181.994506835938	708.6428833007812	649.8633422851562	1039.26171875	1086.967163085938	763.8273315429688	1131.749389648438	766.69189453125	979.6764526367188	1106.9560546875	1148.252563476562	581.7949829101562	990.390625	930.3960571289062	844.9573364257812	719.7978515625	665.008056640625	1062.645874023438	1123.236083984375	976.9434204101562	992.0473022460938	794.0201416015625	1103.691528320312	1231.158325195312	1012.4677734375	966.7574462890625	818.2376098632812	418.7651977539062	433.0933837890625	1206.225463867188	799.6441650390625	1478.244750976562	475.0641174316406	1312.823608398438	1724.609008789062	1071.641479492188	1360.760986328125	1150.62548828125	1072.007568359375	939.0941162109375	876.7489013671875	1578.79248046875	987.2809448242188	1246.93359375	1500.208740234375	1244.924438476562	953.2022705078125	1283.53369140625	1160.074829101562	1450.259399414062	1144.024780273438	1096.65234375	1356.199340820312	1071.1669921875	1223.045776367188	1075.067138671875	1201.845825195312	1667.593627929688	1134.536987304688	1197.352294921875	891.9751586914062	1314.677001953125	1102.666870117188	1158.046752929688	833.5728759765625	1660.322143554688	1872.672607421875	1117.375244140625	1861.682373046875	1068.76171875	1386.142700195312	1696.640258789062	888.1376953125	1015.896179199219	823.3662719726562	1328.679809570312	999.0712890625	1329.379028320312	1180.313720703125	1404.077758789062	943.1293334960938	946.9559326171875	1077.915649414062	1362.529052734375	938.4642333984375	1241.562133789062	1274.023071289062	1182.747802734375	1525.48779296875	1122.463012695312	1244.046752929688	1924.570922851562	1077.026611328125	1310.76123046875	873.7167358398438	1322.6376953125	1089.364501953125	960.923828125	858.5132446289062	2256.608154296875	1676.81982421875	1063.581420898438
30	60	20056.630859375	10540.5849609375	13184.84375	17796.56640625	16617.9765625	14665.705078125	18569.451171875	13717.27734375	12699.203125	14748.640625	13412.3935546875	8717.890625	16766.5703125	14329.056640625	13281.328125	10515.9306640625	12536.1484375	17677.84765625	16747.560546875	14397.578125	18334.26171875	13820.271484375	13808.5224609375	13070.9052734375	13744.9755859375	12704.2939453125	10287.2294921875	5229.9169921875	6638.0673828125	18446.638671875	14793.5947265625	19273.42578125	6474.35302734375	16791.828125	19873.958984375	17424.2734375	20486.2890625	14542.826171875	15604.69921875	15645.765625	14773.0673828125	18840.205078125	15728.955078125	17263.234375	20064.07421875	19064.447265625	14972.6357421875	14683.748046875	17423.193359375	18197.3828125	16206.98828125	17147.47265625	19962.203125	15892.5830078125	18440.728515625	16681.8671875	17858.0390625	20041.251953125	16921.87890625	18190.119140625	14815.2802734375	16565.556640625	15575.1494140625	17648.529296875	12579.7470703125	21430.9453125	19207.21875	17042.96484375	19225.939453125	17393.87109375	20091.93359375	18100.77734375	15716.6826171875	15718.7060546875	15219.8505859375	20222.64453125	16092.0078125	17079.83203125	17862.77734375	19189.490234375	15944.0654296875	15028.5986328125	17721.552734375	18947.42578125	16201.98046875	17619.251953125	20244.685546875	15920.2841796875	19817.501953125	16257.7490234375	18261.4921875	20254.033203125	17000.318359375	18333.609375	14692.84375	16860.470703125	15984.2919921875	17380.056640625	13138.8427734375	21039.974609375	18119.6484375	18621.875
60	90	47790.015625	24940.791015625	30173.78125	40894	39530.8984375	35916.77734375	41582.96484375	32514.84375	28253.224609375	32599.00390625	30605.11328125	19793.546875	39184.83984375	29830.26171875	29871.822265625	25049.2109375	29615.541015625	41237.75390625	38956.40234375	35139.6796875	43641.07421875	30943.1875	31088.037109375	26638.833984375	36445.0234375	29379.142578125	26557.4609375	10367.5791015625	14311.5009765625	42174.42578125	34101.61328125	38531.66796875	13067.4453125	39577.91015625	43213.25390625	41516.1875	45788.25	33662.64453125	35787.67578125	35797.34375	34763.4765625	41402.58203125	37839.5	39460.84765625	45020.515625	41693.65234375	36735.80859375	33479.0546875	38736.3828125	40691.12890625	40824.26953125	40487.12890625	47216.22265625	36830.96875	42538.32421875	38297.57421875	42181.96875	42999.09375	41080.47265625	42268.98828125	35439.7578125	36152.63671875	36663.59765625	40005.15625	31030.84765625	45815.20703125	39387.5546875	36881.76953125	41690.63671875	40580.546875	46148.41796875	36094.3125	35626.328125	37621.34375	35598.02734375	42837.4921875	38318.0078125	39698.81640625	42657.81640625	42126.74609375	37235.3359375	34167.80078125	40675.33203125	42379.4296875	39546.0390625	41843.01171875	48324.0546875	37906.203125	44504.4140625	37950.8828125	42015.38671875	42752.6796875	41119.1015625	42714.81640625	35336.2109375	36425.3203125	37229.78125	42660.88671875	29749.44921875	46805.73046875	38200.58203125	43958.744140625
90	120	57161.265625	29520.42578125	35544.328125	46173.1015625	45744.19140625	44385.296875	49370.0078125	38575.125	31643.61328125	36244.265625	33225.1796875	22110.48046875	42254.9453125	35168.8046875	34253.82421875	29534.021484375	36415.27734375	46133.94921875	46579.85546875	41378.89453125	51736.5390625	39141.859375	34295.57421875	33221.046875	40449.140625	33256.34375	28654.15234375	9548.814453125	14393.041015625	46421.0625	40212.046875	38539.0390625	12242.1220703125	45267.4375	45971.03125	47536.10546875	53300.09765625	34476.4140625	40645.17578125	41922.375	39729.08984375	44559.05078125	43612.94140625	45314.36328125	50387.27734375	45183.44140625	41563.91015625	35801.49609375	43929.4921875	46060.9140625	43456.28515625	45012.79296875	54859.83203125	42330.66796875	48304.1875	43935.234375	48382.58984375	46902.78125	47804.6953125	47763.9375	42009.54296875	39244.03515625	42158.01953125	45483.86328125	33234.1015625	48284.75390625	40780.75	45171.0546875	42638.80078125	48289.1171875	53629.765625	35980.49609375	41027.03515625	43734.48828125	40232.6796875	48766.8515625	44170.671875	44475.7578125	48684.5859375	46522.82421875	41972.19921875	34203.30859375	47195.32421875	46982.73046875	43361.359375	47457.0859375	57856.046875	42832.83984375	50099.37890625	44009.484375	48190.7890625	45545.2578125	47400.65234375	47613.359375	41469.66015625	40026.48828125	43063.17578125	47778.0390625	31166.89453125	51698.83984375	41690.71875	49898.7421875
120	150	57246.54296875	29644.564453125	36854.51171875	46269.17578125	45542.45703125	42838.26953125	49512.15625	37527.58984375	30915.80078125	35167.734375	32390.068359375	21825	42438.53125	34264.5390625	34940.10546875	29775.02734375	35745.26171875	45924.015625	46312.484375	43247.10546875	51666.41015625	38043.3046875	34452.68359375	30667.5859375	42269.3828125	34460.14453125	29357.146484375	8602.2431640625	13689.83203125	43986.359375	39948.79296875	36527.2890625	11252.248046875	44619.17578125	44435.171875	46636.31640625	51469.71484375	32575.890625	40770.58203125	41335.5	40153.8046875	43908.19140625	43502.05859375	44579.28515625	50041.01171875	45479.0390625	42676.76953125	37664.875	44237.36328125	46853.68359375	42987.94921875	44995.58984375	55101.26171875	41828.953125	47481.1875	43892.77734375	47545.87890625	45918.3046875	47102.87109375	47778.2109375	41379.3828125	39605.796875	41947.796875	45003.33984375	33387.15234375	49049.4296875	40708.69921875	44439.75390625	42911.8046875	46049.734375	54648.375	35574.9375	41049.7734375	43930.60546875	39871.26953125	45173.08984375	44204.71875	43762.828125	48460.27734375	46463.04296875	42625.10546875	34702.59375	47106.7109375	46509.515625	45090.5390625	46844.625	56619.43359375	42939.59765625	50054.14453125	43295.70703125	47007.3359375	46331.29296875	47037.5390625	47914	41400.5859375	39499.2890625	41844.2421875	47680.08203125	30890.962890625	50737.90625	40411.92578125	50056
150	180	56803.5	29560.853515625	36146.5234375	45505.9375	45539.19921875	42151.19140625	51084.171875	39096.23828125	31033.076171875	34676.109375	32516.53515625	21637.158203125	44088.38671875	34233.7421875	34767.203125	29539.1171875	35379.0859375	45214.6484375	45815.12890625	41833.00390625	51566.54296875	39147.53515625	35631.37109375	32697.43359375	38955.38671875	34866.796875	29835.12109375	8341.7783203125	13422.234375	44818.7421875	39149.37109375	34853.359375	10994.7353515625	43740.77734375	43201.3203125	46914.1640625	50801.5546875	33545.58203125	40075.31640625	40558.1015625	39180.671875	42880.33203125	43437.90625	44144.875	48880.296875	44209.15625	40372.48046875	37465.140625	41709.50390625	46199.9375	44213.1796875	44600.01171875	53588.4921875	40916.609375	47273.40625	43339.1953125	47413.36328125	45784.96875	46313.7578125	46993.1171875	40399.67578125	38768.4375	40982.43359375	42320.03125	33716.2890625	47945.20703125	38779.0859375	43769.6640625	41786.78515625	44559.5390625	53052.73046875	34123.6484375	40779.45703125	43305.19921875	39479.58984375	44360.73828125	43754.9921875	42846.953125	46631.03125	44328.1015625	42006.11328125	35167.21484375	44442.21484375	45275.86328125	43691.58984375	45442.328125	56329.83203125	41745.49609375	49400.6015625	42499.84765625	46158.93359375	42690.60546875	45840.94140625	46679.546875	40683.37890625	38328.96484375	41993.1796875	45111.578125	31353.5234375	50662.140625	40269.73828125	49375.33984375
180	240	53886.80859375	28737.51171875	35135.9609375	43295.51171875	44312.62109375	40851.99609375	47863.69921875	37097.7109375	30720.92578125	34592.16015625	31724.95703125	20998.134765625	41158.64453125	34681.78515625	33591.9921875	28889.50390625	34253.2578125	43195.8984375	44397.83203125	40144	47425.7421875	38249.0546875	35284.11328125	31173.916015625	38573.0078125	33173.5	27801.3046875	8111.8310546875	13139.6767578125	41068.11328125	38385.6484375	32889.85546875	10813.1044921875	42126.4921875	42253.21875	44393.1953125	48409.9296875	31646.482421875	38957.8984375	38958.08984375	37783.86328125	40648.95703125	41276.7578125	42712.23046875	46966.05859375	42982.41015625	39222.53125	34978.62890625	41150.15625	43961.50390625	41404.17578125	42833.046875	53005.82421875	39328.68359375	44903.3359375	41511.3984375	44714.203125	43006.3671875	44310.8828125	44335.22265625	39161.65625	37112.19140625	38863.9140625	40932.12109375	31305.365234375	45550.546875	38881.60546875	41986.32421875	40037.4296875	43202.75390625	50294.04296875	31867.33984375	39365.0859375	41254.33203125	38165.18359375	41890.2890625	41884.03515625	41594.671875	44950.5859375	43336.8984375	40186.484375	33192.95703125	43479.03515625	43193.1640625	42031.7109375	43375.37890625	54453.9140625	40362.6875	47826.2109375	40420.89453125	44224.75390625	42698.45703125	43265.04296875	44083.5	38953.11328125	37246.94140625	40232.67578125	43112.7109375	30695.072265625	46218.4921875	38650.2578125	47040.953125
240	300	50980.67578125	27788.591796875	34447.875	40941.87890625	42608.94921875	38410.96875	45106.03515625	36706.109375	29685.27734375	34398.6328125	32200.935546875	20642.58203125	38627.41796875	32300.072265625	32381.5390625	27627.06640625	33287.5546875	40799.66796875	42696.3828125	37319.4375	46584.9140625	36636.453125	34604.83203125	31059.451171875	36266.609375	32312.275390625	29677.49609375	7837.02734375	12747.619140625	38355.328125	36401.265625	31006.46484375	10603.7734375	39402.12109375	39463.828125	40977.9609375	46665.9609375	31131.6875	36788.953125	36691.21484375	36191.9921875	37869.8046875	39059.703125	39322.03125	44946.16796875	39998.50390625	36549.60546875	33641.875	38866.328125	40401.72265625	38918.41015625	38871.96875	50649.69140625	37209.2265625	42162.53515625	38671.3359375	41385.921875	41359.359375	41149.609375	41457.21484375	36418.671875	35289.48046875	36399.0078125	36634.40625	29894.7265625	43880.984375	36203.24609375	40344.83984375	37473.93359375	40552.56640625	48577.046875	30847.583984375	37603.99609375	38734.02734375	35987.6875	38268.11328125	39389.96484375	38609.71484375	42778.51171875	40709.8203125	37506.58984375	32578.578125	40301.6171875	40486.46875	38489.8359375	40786.14453125	51127.59765625	37613.96875	43982.37109375	38329.29296875	41247.921875	40212.48828125	40576.2890625	40933.51953125	36676.56640625	35456.53125	37187.3984375	38987.13671875	28970.17578125	44374.73828125	36649.98046875	44335.984375
300	360	47729.92578125	26777.041015625	32571.869140625	38541.296875	41065.76953125	35424.01953125	42892.09765625	35542.41796875	29229.29296875	34125.6484375	32405.1015625	19673.720703125	37487.01171875	32431.986328125	32720.970703125	26691.15234375	32069.7890625	38592.625	41048.171875	35133.0078125	42574.265625	34091.29296875	33473.94921875	29951.26171875	36246.6875	31540.953125	27347.662109375	7761.30419921875	12602.484375	37343.48828125	36017.3125	28887.302734375	10614.373046875	38111.79296875	36617.03515625	37959.1953125	43008.83203125	28381.16015625	35620.58203125	34266.44921875	34392.44921875	35123.26953125	37101.55859375	37146.6171875	42139.25	38340.953125	35075.265625	31978.40625	36699.8671875	38144.10546875	37401.0859375	36721.1171875	47078.69921875	34781.44921875	39253.2421875	36403.33984375	38653.89453125	38352.98828125	38474.8203125	38532.484375	34389.234375	33528.0234375	33988.1796875	35355.8515625	27238.40234375	39365.4921875	34643.05078125	38657.421875	37106.875	37377.64453125	45687.62109375	29588.29296875	36395.37890625	35870.0703125	34336.06640625	37007.4453125	37362.3203125	36923.28125	41517.19140625	38061.6796875	35018.140625	31215.939453125	37581.94140625	37493.546875	35941.92578125	37879.52734375	48215.4140625	35255.4375	40653.37890625	35795.01171875	38408.296875	37965.48046875	38024.28515625	37951.7109375	34007.45703125	33303.0859375	34947.15234375	37700.26953125	28643.021484375	40063.41796875	35162.9375	41735.060546875
360	480	43636.375	25599.1171875	31018.65234375	35653.84375	38829.42578125	32268.814453125	39159.88671875	33704	27462.669921875	33157.9375	29537.595703125	18749.0390625	35420.8359375	31002.849609375	30284.28125	25495.8671875	30204.103515625	35604.55078125	38514.2734375	32029.470703125	39679.50390625	33797.9609375	33582.29296875	28935.578125	34730.61328125	30129.830078125	27613.017578125	7829.5810546875	12392.7333984375	33876.171875	35095.11328125	26417.1015625	10468.87890625	34646.07421875	35736.94921875	34353.17578125	41019.421875	28698.857421875	33005.03125	31429.896484375	32083.9296875	33014.26171875	34539.3671875	34872.671875	39812.83203125	35467.6328125	32615.828125	29675.03515625	34030.5703125	34690.25390625	33855.5546875	34309.4140625	45441.3046875	32124.78515625	36694.63671875	33405.1328125	35501.75390625	36177.1953125	35133.390625	34903.65625	31652.421875	31135.21875	31295.6796875	32643.41796875	27670.22265625	37469.56640625	32521.435546875	34722.86328125	34101.10546875	33642.1328125	42563.23046875	28082.142578125	33348.99609375	32970.18359375	32131.4609375	34198.24609375	34676.71875	33658.46484375	38643.20703125	35520.93359375	32681.388671875	29469.630859375	34686.32421875	34390.66015625	33721.14453125	34163.09375	46002.08203125	32470.037109375	37811.21875	32744.447265625	35118.98046875	35967.69921875	34632.84375	34897.0390625	31802.50390625	30779.330078125	32109.91796875	34784.203125	26476.5546875	38659.05078125	32788.2421875	38486.091796875
480	600	39605.7421875	24359.400390625	29404.71875	32675.3671875	36649.73046875	28807.484375	36802.0625	31965.298828125	27543.083984375	32816.4140625	29065.458984375	17518.99609375	32624.236328125	30211.29296875	30105.95703125	24209.294921875	28714.822265625	32896.296875	35690.484375	28517.50390625	36288	31616.560546875	32972.71875	28047.8984375	32470.9140625	29569.97265625	25425.451171875	7876.16064453125	12336.4765625	30662.322265625	34040.0390625	23995.37890625	10508.068359375	31190.71484375	33209.08203125	30923.689453125	37988.921875	27700.783203125	30265.916015625	28564.345703125	29609.357421875	30539.51953125	32124.841796875	31865.322265625	37505.01171875	32332.03125	29842.912109375	28723.935546875	31501.603515625	31318.572265625	31335.1953125	30417.662109375	42225.59765625	29139.17578125	34009.875	30357.2734375	32559.91796875	32240.330078125	31164.1875	31407.4921875	28594.431640625	28647.712890625	28183.599609375	28857.69921875	25522.69140625	33764.859375	30563.21875	32261.509765625	31826.748046875	29993.494140625	39580.125	26527.83203125	30904.177734375	29854.60546875	29704.015625	30829.91015625	31958.59375	30815.416015625	36004.68359375	32273.224609375	29916.03125	27721.505859375	30970.380859375	30683.958984375	31011.416015625	30801.052734375	43204.30078125	29827.798828125	34797.1953125	29929.55859375	32086.244140625	32193.75390625	31415.466796875	31000.42578125	28614.39453125	28164.177734375	29094.85546875	31294.90625	25314.41796875	35055.328125	30487.638671875	35275.998046875
600	900	34706.51953125	23005.0078125	27205.8203125	28978.349609375	33363.70703125	25157.03515625	32389.068359375	30338.21484375	26152.17578125	32202.935546875	27869.357421875	16405.75	31310.71875	29056.30859375	26713.359375	22946.630859375	26421.43359375	29063.359375	32586.994140625	25429.197265625	32447.345703125	30104.423828125	32397.837890625	26344.11328125	28211.83203125	29177.095703125	24029.6640625	8132.39990234375	12410.1796875	27591.462890625	32517.984375	21342.7890625	10614.0068359375	28092.677734375	29884.880859375	26917.189453125	34571.453125	24965.2890625	27676.318359375	24887.642578125	26633.892578125	26816.15234375	28933.62109375	28741.921875	34182.31640625	28773.453125	26832.892578125	26449.02734375	27977.009765625	27412.990234375	27745.638671875	27000.97265625	39426.32421875	26242.205078125	30189.0390625	27034.078125	28639.19140625	29347.40625	27623.01171875	27644.23046875	25445.392578125	25746.10546875	24863.03125	26251.31640625	24708.470703125	30606.5	27948.865234375	28502.962890625	29158.908203125	26063.369140625	35613.9765625	24720.720703125	27937.2734375	26245.83203125	26797.505859375	28028.265625	28771.17578125	27617.1171875	33295.9140625	28644.810546875	26903.962890625	25926.150390625	28493.263671875	26914.2578125	27614.66796875	27159.564453125	40121.47265625	26533.81640625	30383.228515625	26605.32421875	28354.078125	28787.603515625	27193.68359375	27042.474609375	25262.181640625	25340.486328125	25435.134765625	27857.705078125	24427.08203125	31172.5546875	27440.771484375	30972.7275390625
900	1200	29542.875	21681.40234375	25093.23828125	25378.052734375	30304.48828125	21401.556640625	28283.9140625	28382.541015625	25079.2109375	30287.58203125	26363.771484375	15273.203125	28104.185546875	28354.29296875	24129.974609375	21653.373046875	24699.66015625	25505.732421875	29617.33984375	21183.02734375	28446.8984375	28160.66015625	31281.24609375	25215.705078125	25388.298828125	27687.634765625	20889.482421875	8460.44140625	12530.88671875	23498.119140625	31069.208984375	18838.41796875	10727.37890625	24518.66015625	26250.42578125	22783.126953125	30785.154296875	23288.94140625	25022.814453125	21600.390625	23854.490234375	23970.451171875	26039.3984375	24968.466796875	31154.666015625	25380.6328125	23413.2578125	24155.060546875	24993.701171875	23424.537109375	24701.287109375	23735.30859375	36586.98046875	23151.966796875	26122.45703125	23505.9375	24906.349609375	25421.28515625	23568.44140625	23349.73828125	22146.580078125	22709.212890625	21748.673828125	22546.16796875	21963.134765625	26790.814453125	24834.255859375	25084.302734375	26767.4609375	21818.015625	32154.091796875	23042.265625	25068.4921875	22631.04296875	24080.001953125	24698.861328125	25620.3984375	24399.41796875	30311.92578125	25324.5234375	23334.583984375	23937.189453125	25093.81640625	23562.001953125	24181.904296875	23282.5390625	37306.6015625	23476.0703125	26687.2890625	23175.166015625	24903.212890625	26032.30078125	23366.796875	23123.736328125	21741.904296875	22020.794921875	22109.40625	24449.884765625	21746.609375	27474.80078125	25029.671875	26868.630859375
1200	1500	26296.244140625	20610.11328125	23503.998046875	22772.62109375	27792.841796875	19463.109375	25678.60546875	26427.00390625	23842.4453125	29401.310546875	24709.294921875	14817.4541015625	24270.375	27173.6953125	22448.1953125	20528.537109375	23003.796875	22717.8671875	26964.203125	19211.876953125	25515.169921875	25447.390625	29927.69921875	24044.619140625	22385.583984375	26420.89453125	19795.859375	8659.21875	12512.7939453125	22187.4453125	29763.65234375	17175.43359375	10906.1083984375	22405.845703125	23488.39453125	20113.611328125	27593.046875	22282.14453125	22613.35546875	18970.673828125	21632.267578125	21988.888671875	23916.330078125	22489.05859375	28591.12890625	22678.873046875	21197.359375	22281.1484375	22354.064453125	20804.55859375	22202.396484375	21479.65234375	33245.81640625	20841.177734375	23636.65625	21164.927734375	22555.357421875	23262.4453125	20995.970703125	20745.44140625	19626.296875	20549.455078125	19113.185546875	20109.955078125	20209.06640625	24322.451171875	22918.08984375	22523.10546875	23885.1328125	19413.73828125	28642.6875	21535.265625	22962.0078125	20091.71484375	21694.78125	22002.974609375	23265.23828125	22124.888671875	28226.859375	22613.318359375	21109.068359375	23452.912109375	22496.15234375	20769.994140625	21939.1640625	21148.14453125	34282.57421875	21177.88671875	23707.6640625	20757.279296875	22312.345703125	22957.810546875	20820.7265625	20297.818359375	19611.107421875	20003.458984375	19670.125	22146.849609375	20486.1171875	24215.5859375	22432.283203125	23744.283203125
1500	1800	23240.599609375	19606.708984375	21617.84375	20502.541015625	25286.94921875	17467.693359375	23553.72265625	24274.046875	22802.88671875	28178.080078125	23446.875	14199.5283203125	22268.974609375	25824.513671875	19198.064453125	19592.87109375	21661.392578125	20598.265625	24350.5078125	17167.25390625	22908.244140625	22984.505859375	28937.140625	22856.56640625	21124.626953125	25180.880859375	17883.9765625	8621.1875	12637.2978515625	19612.392578125	27607.955078125	15829.3369140625	10881.9228515625	20317.6796875	22045.828125	17981.0078125	25337.068359375	20976.017578125	20527.2890625	17233.55078125	19835.33203125	20786.32421875	21955.052734375	20699.712890625	26772.73828125	20978.890625	19123.53515625	21313.388671875	20896.4609375	18860.6328125	20294.146484375	19396.646484375	31077.23046875	19029.689453125	21483.5703125	19185.564453125	20586.046875	20963.76953125	18566.583984375	18239.55859375	17514.46484375	18531.04296875	17375.33984375	18155.765625	18332.892578125	21416.142578125	21210.34765625	20870.865234375	21947.60546875	17076.533203125	26050.134765625	20059.92578125	20928.30078125	17718.017578125	19855.697265625	20442.19921875	21129.55859375	20534.150390625	26161.98046875	20721.2734375	19199.94140625	22039.13671875	21072.8046875	18841.486328125	20011.146484375	18982.1484375	31553.5078125	19006.73046875	21889.546875	18544.1875	20290.896484375	21072.75	18439.408203125	17926.28125	17573.98046875	17911.736328125	17571.853515625	19996.142578125	18740.193359375	21850.451171875	20807.41015625	21230.197265625
1800	2100	21312.337890625	18792.5078125	20059.5625	18826.99609375	23563.556640625	16473.31640625	21482.658203125	22410.998046875	22118.78515625	27227.69140625	23586.091796875	14005.8916015625	20160.4140625	24987.3828125	17612.939453125	18715.4375	19941.66015625	18853.17578125	22516.998046875	16405.552734375	21418.0390625	22184.900390625	27554.220703125	22168.494140625	19049.513671875	24706.685546875	16686.333984375	8595.4609375	12630.1572265625	18969.48046875	26569.310546875	14886.701171875	10883.1669921875	18867.740234375	19545.650390625	16307.837890625	23070.978515625	19720.974609375	19593.98046875	15732.833984375	18592.7734375	19080.19140625	20338.87109375	19538.001953125	25067.693359375	19222.884765625	17711.853515625	20587.611328125	19291.978515625	17287.056640625	18928.56640625	17839.673828125	28351.861328125	17494.28515625	19727.88671875	17491.95703125	18764.1484375	19120.158203125	16826.162109375	16445.37109375	16161.62109375	16721.595703125	15915.548828125	15986.982421875	16337.4306640625	19897.21484375	19779.158203125	19114.96484375	19775.45703125	15468.4716796875	24153.341796875	19264.349609375	19457.005859375	16253.7109375	18634.16796875	18981.62890625	19676.37109375	19321.333984375	24530.435546875	19145.31640625	17412.751953125	21911.90234375	19680.845703125	17160.123046875	19089.158203125	17250.130859375	29454.1875	17522.18359375	19783.2265625	17013.37890625	18692.3203125	19644.767578125	16713.537109375	16071.1767578125	16025.1005859375	16439.01953125	16252.470703125	18090.53515625	17051.84375	19899.265625	19370.435546875	19266.67578125
2100	2400	19344.255859375	18055.021484375	19377.017578125	17552.775390625	22254.478515625	15044.5498046875	19830.498046875	21718.1015625	20740.203125	25570.74609375	21730.783203125	13815.603515625	18275.208984375	23907.291015625	15981.234375	17984.697265625	18822.58203125	17648.560546875	20545.466796875	15074.890625	20438.765625	21558.265625	27199.615234375	20943.63671875	18039.99609375	23218.66796875	15490.8134765625	8332.80859375	12631.7626953125	17228.95703125	24731.71875	14201.1279296875	10992.5234375	17849.072265625	18698.607421875	15217.4130859375	21684.662109375	18456.15234375	18489.1484375	14562.169921875	17580.345703125	18035.337890625	19359.423828125	18220.486328125	23517.05859375	18299.046875	16507.201171875	20695.771484375	18563.02734375	16109.4111328125	17858.43359375	16613.81640625	26503.814453125	16519.716796875	18530.904296875	16390.826171875	17733.43359375	18220.57421875	15476.9150390625	15109.056640625	15253.72265625	15521.2939453125	14880.1630859375	15289.599609375	15783.0107421875	18610.38671875	18461.576171875	17748.77734375	18975.458984375	14301.6875	22010.45703125	18863.923828125	18606.291015625	15177.9609375	17527.091796875	17799.25390625	18166.82421875	18193.21484375	23752.466796875	17661.935546875	16100.1279296875	21549.869140625	18204.978515625	16212.1435546875	17925.966796875	16144.8125	26864.796875	16481.951171875	18480.41015625	15987.29296875	17455.87109375	17685.109375	15699.7080078125	14846.9287109375	14902.6123046875	15221.966796875	15227.6162109375	17252.478515625	16274.7958984375	17678.8828125	17776.322265625	17837.783203125
2400	2700	18218.234375	17467.39453125	18121.611328125	16587.474609375	20548.416015625	14491.7578125	19455.689453125	20936.857421875	20024.375	25155.314453125	21224.30078125	13452.7060546875	17943.37890625	22294.595703125	15157.8173828125	17412.30078125	18192.767578125	16506.873046875	19612.259765625	14606.3408203125	18622.68359375	20197.81640625	26085.044921875	20899.15625	16006.755859375	22120.5390625	14113.189453125	8217.8740234375	12534.6025390625	16560.291015625	24438.470703125	13698.5625	10965.2998046875	17183.794921875	17471.8515625	14393.794921875	20263.83984375	18343.2890625	17723.21484375	13977.9423828125	16768.642578125	17264.048828125	18179.208984375	17975.158203125	22367.40625	17376.802734375	15515.1142578125	20098.478515625	17488.9921875	15452.837890625	16819.873046875	15725.990234375	25097.642578125	15687.1708984375	17263.90625	15596.20703125	16483.82421875	17519.16015625	14656.640625	14431.7685546875	14298.546875	14700.390625	14001.0498046875	14412.6572265625	15329.767578125	16910.611328125	17518.810546875	16853.828125	18076.388671875	13485.1474609375	20886.958984375	17101.548828125	18071.568359375	14187.4697265625	16740.515625	17353.689453125	17586.197265625	17585.1171875	22344.068359375	17075.080078125	15302.8974609375	20504.96484375	17519.765625	15876.5205078125	16606.759765625	15507.14453125	25834.982421875	15865.716796875	17732.943359375	15234.0087890625	16803.978515625	17120.501953125	14567.20703125	14060.0009765625	14075.4697265625	14246.8759765625	14537.4384765625	15836.896484375	15678.00390625	16945.244140625	17071.68359375	16645.2783203125
