frame_start	frame_end	highbinding	left_cerebral_white_matter	left_cerebellum_white_matter	left_cerebellum_cortex	left_thalamus	left_caudate	left_putamen	left_pallidum	brain_stem	left_hippocampus	left_amygdala	csf	left_accumbens_area	left_ventraldc	left_choroid_plexus	right_cerebral_white_matter	right_cerebellum_white_matter	right_cerebellum_cortex	right_thalamus	right_caudate	right_putamen	right_pallidum	right_hippocampus	right_amygdala	right_accumbens_area	right_ventraldc	right_choroid_plexus	aircavity	skull	vermis	pons	csf_extracerebral	head_extracerebral	ctx_lh_bankssts	ctx_lh_caudalanteriorcingulate	ctx_lh_caudalmiddlefrontal	ctx_lh_cuneus	ctx_lh_entorhinal	ctx_lh_fusiform	ctx_lh_inferiorparietal	ctx_lh_inferiortemporal	ctx_lh_isthmuscingulate	ctx_lh_lateraloccipital	ctx_lh_lateralorbitofrontal	ctx_lh_lingual	ctx_lh_medialorbitofrontal	ctx_lh_middletemporal	ctx_lh_parahippocampal	ctx_lh_paracentral	ctx_lh_parsopercularis	ctx_lh_parsorbitalis	ctx_lh_parstriangularis	ctx_lh_pericalcarine	ctx_lh_postcentral	ctx_lh_posteriorcingulate	ctx_lh_precentral	ctx_lh_precuneus	ctx_lh_rostralanteriorcingulate	ctx_lh_rostralmiddlefrontal	ctx_lh_superiorfrontal	ctx_lh_superiorparietal	ctx_lh_superiortemporal	ctx_lh_supramarginal	ctx_lh_frontalpole	ctx_lh_temporalpole	ctx_lh_transversetemporal	ctx_lh_insula	ctx_rh_bankssts	ctx_rh_caudalanteriorcingulate	ctx_rh_caudalmiddlefrontal	ctx_rh_cuneus	ctx_rh_entorhinal	ctx_rh_fusiform	ctx_rh_inferiorparietal	ctx_rh_inferiortemporal	ctx_rh_isthmuscingulate	ctx_rh_lateraloccipital	ctx_rh_lateralorbitofrontal	ctx_rh_lingual	ctx_rh_medialorbitofrontal	ctx_rh_middletemporal	ctx_rh_parahippocampal	ctx_rh_paracentral	ctx_rh_parsopercularis	ctx_rh_parsorbitalis	ctx_rh_parstriangularis	ctx_rh_pericalcarine	ctx_rh_postcentral	ctx_rh_posteriorcingulate	ctx_rh_precentral	ctx_rh_precuneus	ctx_rh_rostralanteriorcingulate	ctx_rh_rostralmiddlefrontal	ctx_rh_superiorfrontal	ctx_rh_superiorparietal	ctx_rh_superiortemporal	ctx_rh_supramarginal	ctx_rh_frontalpole	ctx_rh_temporalpole	ctx_rh_transversetemporal	ctx_rh_insula	reference
0	30	3795.931640625	2333.37060546875	2346.5849609375	3304.6845703125	3457.00732421875	3003.30322265625	3240.41748046875	2398.052734375	3094.244873046875	3418.15966796875	2597.451416015625	2154.208984375	3648.981201171875	2988.045654296875	3374.66943359375	2320.988037109375	2396.910400390625	3348.2138671875	3324.866943359375	2560.421142578125	3627.766845703125	2558.121337890625	3679.471923828125	2485.5078125	2844.89404296875	3442.2265625	2687.014892578125	1791.258422851562	1816.325805664062	3451.7080078125	3135.156982421875	4587.94873046875	905.2543334960938	3844.70458984375	3533.52685546875	3606.390869140625	3863.98681640625	2650.171142578125	3147.046875	3385.9951171875	3268.8779296875	4463.00244140625	3222.40087890625	4292.8251953125	3815.151123046875	4940.19677734375	3045.12255859375	4005.966796875	3274.192626953125	4059.781005859375	3886.18798828125	4424.43505859375	4188.83837890625	3604.585693359375	3749.28955078125	3597.3017578125	3751.865234375	4770.71337890625	3891.544189453125	4066.714599609375	3323.900390625	3671.241943359375	3913.569091796875	4570.24560546875	3491.43408203125	5458.16455078125	5017.10205078125	3585.946533203125	4219.5634765625	3535.4658203125	4099.599609375	3446.817626953125	2930.75927734375	3257.3369140625	3065.828125	4107.234375	3149.982421875	4485.8935546875	4069.65283203125	4932.994140625	3149.2021484375	3467.615966796875	3341.4248046875	4263.50927734375	3929.677978515625	3667.905517578125	3908.32666015625	3705.835205078125	3732.03955078125	3475.52734375	3628.974609375	5460.9521484375	3749.65966796875	3810.079345703125	3132.427001953125	4096.56884765625	3984.36767578125	4798.51318359375	3077.347412109375	5612.900390625	4548.93896484375	3274.643798828125
30	60	25904.05859375	15408.1689453125	15951.9853515625	21983.833984375	22649.6640625	19705.193359375	22806.126953125	17129.919921875	17140.23046875	20074.40625	17520.349609375	13959.2529296875	21934.689453125	19454.4765625	19690.58203125	15034.439453125	15712.978515625	22663.634765625	21917.865234375	19730.619140625	23255.80078125	16376.1650390625	19530.28125	15899.5048828125	18440.62890625	19369.873046875	17533.8671875	9419.431640625	9671.9580078125	23451.001953125	20007.9296875	24276.900390625	5358.91162109375	22396.650390625	20979.544921875	23753.75390625	26572.646484375	15234.0810546875	20423.880859375	21600.955078125	19497.935546875	25535.3984375	21080.24609375	25811.68359375	23567.20703125	25804.1953125	20481.5078125	20041.583984375	22104.20703125	24866.982421875	24398.482421875	25634.384765625	25078.427734375	22631.47265625	24198.580078125	23364.318359375	24290.021484375	24503.63671875	25506.060546875	23757.8984375	21465.080078125	22944.9296875	23559.677734375	28378.703125	19573.802734375	29312.7890625	23434.974609375	21640.60546875	23709.6875	23268.345703125	27005.58203125	18072.22265625	19359.517578125	21952.017578125	19741.5703125	23390.396484375	21204.826171875	24273.73828125	23997.412109375	25618.8984375	19672.423828125	18848.85546875	20684.416015625	24582.390625	23823.474609375	23571.771484375	25056.5390625	22153.44140625	23559.107421875	22537.689453125	23707.7421875	27197.65234375	24214.55078125	23527.841796875	21054.734375	22517.0078125	22947.04296875	27443.978515625	18069.736328125	31087.494140625	23242.53125	23405.0322265625
60	90	46914.1015625	27286.67578125	28858.298828125	39028.17578125	39689.7109375	34945.6953125	41794.44921875	31897.01953125	27386.037109375	33837.9375	30222.96484375	23532.720703125	37235.17578125	33207.265625	32940.60546875	27040.8984375	28521.3671875	40130.01953125	38959.625	35345.74609375	42423.0859375	30032.81640625	32476.12890625	29341.51953125	33439.4296875	33135.5078125	28126.595703125	14058.82421875	14719.2861328125	41160.49609375	33801.78515625	37770.2109375	8927.9912109375	39307.99609375	35868.7890625	41652.6640625	46963.9921875	25678.484375	35476.28515625	38016.2109375	35051.390625	43433.04296875	38208.34765625	42782.6875	41258.8203125	41775.6796875	35953.64453125	32841.89453125	37192.9765625	41722.24609375	42524.55859375	43057.39453125	46949.87890625	40408.3359375	42774.60546875	40494.64453125	42919.16796875	39793.8828125	43669.16015625	41318.56640625	39764.39453125	37678.14453125	41291.43359375	46227.01171875	29866.396484375	48513.71875	38008.65625	40160.234375	39011.90234375	41263.2265625	47693.46875	29372.486328125	33566.7109375	39214.45703125	33965.82421875	40631.68359375	38992.86328125	40849.859375	43106.8671875	40683.82421875	35792.05859375	31453.82421875	38056.28125	41173.6796875	41893.78515625	41845.15625	46097.00390625	39496.79296875	43107.5234375	39477.91015625	42723.5703125	41754.31640625	42697.8125	40606.953125	37941.0390625	37377.8828125	39434.4765625	46477.26171875	28700.1171875	48201.703125	37547.05078125	42670.353515625
90	120	49450.390625	29021.158203125	30180.498046875	40037.07421875	41243.94140625	36909.92578125	43362.4296875	35095.859375	28168.53125	33553.80859375	31289.96484375	22805.603515625	36822.22265625	32208.94921875	35884.8046875	28757.119140625	29528.556640625	41132.90625	41063.56640625	37248.82421875	44379.69140625	31608.609375	33665.15234375	30650.912109375	34256.23828125	33364.86328125	28471.45703125	12241.5341796875	13513.521484375	43324.96875	33483.734375	36249.8125	8736.7099609375	42490.4140625	37454.76953125	44793.5390625	47955.0625	28382.142578125	36685.76953125	40454.8984375	36888.68359375	44525.2578125	39787.3671875	42327.1875	44369.44921875	41187.859375	37721.62109375	32869.84375	40853.90234375	42408.828125	43833.50390625	44157.37890625	51028.41015625	41332.40625	44897.81640625	42614.45703125	45085.44921875	39336.1796875	46020.203125	43160.3828125	41557.94140625	37815.14453125	42945.375	46054.03125	30825.607421875	47172.8984375	37144.890625	39995.5390625	39513.08203125	43230.7109375	48821.76171875	28173.58203125	35492.38671875	41086.38671875	36214.4296875	39240.16796875	41655.8203125	40635.7265625	44212.41796875	40661.4609375	36949.53515625	31190.41015625	39796.5703125	42850.06640625	43321	41802.3125	50525.83203125	41374.96875	44427.140625	41187.8671875	45354.328125	41278.0703125	45360.7734375	42034.75	40586.5546875	37963.15625	41137.89453125	47874.4765625	28415.1796875	47904.29296875	36933.55859375	44406.212890625
120	150	48372.5078125	28576.419921875	30458.783203125	39375.76171875	41799.04296875	36189.08984375	42431.70703125	31991.458984375	27507.30078125	33342.78515625	27417.17578125	21902.103515625	37255.03125	32883.83203125	33395.921875	28405.875	28687.8828125	40560.15234375	39849.890625	36212.46875	42636.46484375	33012.91015625	31240.849609375	27480.19140625	36511.9609375	33046.8984375	30864.447265625	11444.9541015625	12792.40234375	42462.37890625	33153.671875	34582.20703125	8595.7236328125	41235.8046875	36054.41015625	43278.37890625	47323.02734375	24906.25390625	35997.96484375	39099.453125	35557.375	43679.1171875	39736.7265625	41621.15234375	42681.484375	40273.5625	36908.1875	31206.212890625	39658.51953125	41848.43359375	40296.11328125	43940.3984375	50369.56640625	40635.38671875	42623.703125	41487.671875	43494.41015625	37816.54296875	44506.4609375	42339.67578125	40437.6875	37009.59765625	41653.4296875	44817.05859375	28812.8046875	45045.578125	36467.6953125	39357.87109375	39438.44921875	41488.65234375	48067.42578125	27452.53515625	34059.4296875	40912.27734375	34662.3203125	40013.0859375	40987.0390625	40191.75	43029.078125	40350.0234375	35417.63671875	28869.251953125	37331.5	41630.13671875	41756.00390625	41027.35546875	49586.01171875	40913.15234375	42928.140625	40781.390625	44117.3359375	40710.5	43698.7578125	40530.0078125	40481.8359375	37160.21875	40035.00390625	45201.234375	27758.15234375	45437.6171875	37267.359375	43933.681640625
150	180	47850.44921875	28212.697265625	30395.986328125	38550.7890625	40457.6328125	35781.39453125	44128.56640625	33169.6171875	27217.158203125	33298.8359375	30213.689453125	22269.994140625	37863.328125	32364.443359375	31581.7265625	27861.9140625	29315.755859375	39305.875	37595.453125	36296.359375	42495.140625	33879.8125	31616.501953125	28627.83984375	36636.46875	32592.705078125	28742.72265625	11236.4931640625	12381.77734375	41650.88671875	32765.802734375	33313.26171875	8680.4521484375	38284.83984375	36058.078125	41363.0859375	48923.89453125	28646.541015625	35125.625	38455.08984375	34796.61328125	42872.39453125	38937.5859375	40127.33984375	42370.4921875	39220.046875	35957.78515625	30659.615234375	38488.3671875	40610.9609375	40167.98046875	41536.5234375	48712.33984375	39807.25	42416.18359375	40436.8671875	44174.90234375	37277.609375	43004.859375	41199.91796875	39072.99609375	35619.19140625	40503.41015625	44680.02734375	28713.88671875	43833.8828125	35704.23046875	37355.73046875	38778.97265625	39933.953125	46237.90625	26310.962890625	33960.66796875	39525.23828125	33056.7109375	37467.41015625	40088.953125	39117.140625	42022.1640625	39550.63671875	34478.49609375	29838.767578125	38887.54296875	40060.89453125	41189.78515625	39599.12890625	48721.953125	39314.87890625	42372.69921875	39795.49609375	42566.4921875	39430.44140625	42583.8828125	39545.44140625	38961.46875	35907.37890625	39873.66015625	44845.05078125	28704.365234375	43807.50390625	35236.171875	42763.724609375
180	240	45528.875	27325.90234375	28721.251953125	37077.27734375	39325.62890625	34684.78515625	40712.671875	31922.232421875	26213.2421875	32861.78125	29261.111328125	21341.921875	36735.44921875	31653.576171875	32010.9765625	27114.646484375	28138.02734375	37898.91796875	37152.46875	33544.65234375	41483.734375	31933.654296875	30838.943359375	27451.052734375	33630.859375	31348.04296875	27126.53515625	11232.927734375	12167.3623046875	37632.51171875	31722.400390625	31568.359375	8734.5244140625	38386.10546875	35607.61328125	39806.0859375	45760.78125	27250.96484375	33581.29296875	36837.16796875	33925.02734375	39395.77734375	36809.3984375	38282.84375	39895.84765625	37766.015625	35039.375	30177.76171875	36208.1171875	38704.39453125	37852.80078125	39707.49609375	45615.77734375	37595.40234375	39750.6328125	38565.91796875	40801.63671875	35988.4296875	41034.7890625	38422.93359375	37514.07421875	34243.375	39111.984375	40969.1171875	28436.18359375	42302.66015625	34176.09375	36968.9765625	36653.99609375	38019.62890625	44002.9609375	25657.5703125	32476.455078125	37537.0625	32874.828125	36297.140625	38671.890625	36524.015625	40320.0390625	36563.640625	33908.4296875	27812.25390625	36293.4765625	37831.5703125	38365.6875	37850.8828125	46941.5078125	37314.171875	38178.46875	37302.51171875	40305.87890625	37407.52734375	40810.14453125	37815.86328125	37316.9140625	34157.81640625	37528.10546875	41383.0234375	26589.138671875	41627.18359375	34536.0078125	41269.19921875
240	300	43295.6171875	26307.76953125	28094.037109375	34752.76171875	37189.23828125	32546.966796875	39482.0390625	30900.2109375	25861.771484375	32508.875	28264.75	20811.740234375	34413.4296875	31089.796875	32499.322265625	26187.37109375	27227.921875	35962.94921875	36638.37890625	32012.30859375	39199.26171875	30412.083984375	30887.77734375	27559.4765625	33074.625	30737.775390625	28324.98828125	10984.9404296875	11789.17578125	38271.94921875	30314.3828125	29554.650390625	8879.607421875	35440.16796875	31904.7578125	36445.67578125	43734.16796875	25647.169921875	32007.505859375	34466.05078125	31909.58984375	36442.5703125	35417.1171875	35822.6953125	38299.89453125	35769.67578125	33070.1796875	29452.328125	34479.09375	35749.859375	35573.43359375	37333.98046875	43270.34375	36014.69921875	38094.1640625	36424.359375	37991.5546875	33421.03515625	38208.81640625	35600.19921875	35175.015625	33159.74609375	35894.92578125	38222.51953125	27266.697265625	40476.9375	32393.6875	35750.83984375	35725.04296875	34535.34375	42333.90234375	25109.6875	31873.021484375	35665.2109375	31313.365234375	34070.6484375	36642.30078125	34581.44921875	38797.8125	35152.80859375	32004.666015625	26790.279296875	32959.3828125	36021.98046875	36317.43359375	35665.578125	44615.00390625	35787.0546875	37089.73828125	34836.35546875	38276.02734375	34870.3046875	37962.234375	34602.3828125	34976.63671875	32663.900390625	35374.625	37039.22265625	25197.095703125	37651.5703125	33278.2109375	38796.521484375
300	360	40586.93359375	25388.060546875	26904.64453125	33473.18359375	36744.3359375	30373.779296875	37171.18359375	30036.99609375	25531.3984375	32463.966796875	26636.197265625	19912.63671875	30938.818359375	29752.986328125	30748.642578125	25315.99609375	26536.42578125	33647.41796875	35095.6015625	29358.376953125	36209.1171875	28809.65234375	29892.126953125	27550.0703125	31715.919921875	30907.4609375	28143.85546875	10749.1123046875	11452.0458984375	35352.015625	29481.5	27857.4921875	8988.166015625	33356.33203125	31154.87109375	34144.125	41839.39453125	24142.162109375	30960.509765625	32980.93359375	30316.046875	34485.37890625	34082.13671875	34265.61328125	37425.15234375	33658.78125	31397.83984375	28137.1953125	32895.296875	34145.12890625	34200.49609375	34658.49609375	41077.203125	33856.375	35760.2734375	34474.5390625	36485.984375	32162.013671875	35813.6484375	33613.53125	33662.8359375	31384.41796875	34287.96484375	35675.33984375	27240.99609375	38234.16796875	31348.912109375	32533.5625	32553.890625	33380.53515625	40755.328125	25096.828125	30170.9296875	33729.06640625	29868.349609375	31849.70703125	35488.9921875	32860.72265625	37294.29296875	33055.140625	30366.1953125	25136.86328125	31902.798828125	33098.796875	33976.81640625	33506.328125	43970.43359375	33801.90234375	35981.07421875	33005.66796875	36011.109375	32952.03125	35956.19921875	32579.75	33151.7890625	30652.21484375	33298.47265625	35904.47265625	24927.890625	37390.25390625	31526.498046875	36775.322265625
360	480	37816.90234375	24451.44921875	25955.69921875	31015.3125	34917.4921875	27442.060546875	35055.80859375	29821.970703125	24690.126953125	31455.31640625	27257.458984375	19012.6015625	30656.048828125	29538.900390625	31752.173828125	24344.4765625	25918.564453125	31737.7890625	33323.39453125	28266.357421875	34353.74609375	29230.119140625	30457.458984375	25642.365234375	31200.73828125	29159.625	26877.349609375	10840.013671875	11187.298828125	32331.095703125	28759.1171875	26065.392578125	9207.3427734375	31868.27734375	30598.005859375	31478.2109375	39994.11328125	24273.744140625	29421.12890625	30805.564453125	28856.279296875	32726.55078125	32252.9921875	31590.810546875	36036.25390625	31692.576171875	29740.18359375	26731.779296875	29748.794921875	31417.6796875	31890.58984375	32477.642578125	40408.93359375	32005.529296875	33218.10546875	32339.962890625	33494.33984375	30594.939453125	33647.77734375	31406.595703125	32108.669921875	30015.83203125	31972.9296875	33608.71875	25817.369140625	36006.8515625	30133.419921875	31913.74609375	31225.16015625	30552.888671875	38343.65234375	23513.6015625	28757.828125	31676.369140625	28677.107421875	30457.71875	33603.390625	31090.9296875	36221.71875	31038.763671875	28799.625	25020.294921875	29968.521484375	31268.90234375	32178.896484375	31320.392578125	41802.30859375	32085.380859375	32743.90234375	30994.447265625	33898.85546875	31625.05859375	33078.875	30570.634765625	31807.515625	29176.4375	30981.109375	33248.96875	23966.501953125	34980.07421875	30168.21484375	34264.859375
480	600	35625.234375	23766.525390625	24842.9453125	29063.1484375	33493.75	26175.607421875	32957.51953125	27684.54296875	24195.25390625	31355.55859375	27464.2109375	18431.818359375	29145.693359375	29880.658203125	31616.44140625	23692.25390625	24965.3359375	29637.2109375	32285.865234375	25925.966796875	33349.234375	29239.380859375	30306.37109375	26135.76171875	30242.830078125	29260.298828125	27058.17578125	10961.740234375	11028.6083984375	30611.60546875	28397.3984375	24289.099609375	9504.4443359375	30206.912109375	28823.548828125	28945.904296875	38634.09765625	23340.06640625	28185.720703125	28746.341796875	27561.330078125	30328.05078125	31201.396484375	29416.224609375	34663.4296875	29185.890625	28292.595703125	26249.3125	28523.35546875	29352.4140625	29821.451171875	30062.6875	39445.8203125	30390.392578125	30904.955078125	30639.775390625	31249.7578125	28951.697265625	31125.625	29009.08203125	30156.955078125	28251.44140625	29959.87890625	31552.00390625	24800.513671875	32820	28411.994140625	29648.48828125	29544.83203125	28316.033203125	37797.51171875	22432.951171875	27754.03515625	29969.4609375	27101.1484375	28136.447265625	32151.484375	29033.0625	35203.203125	29284.75390625	27094.162109375	23525.640625	28067.138671875	30156.6015625	30174.203125	28844.568359375	41412.64453125	30033.619140625	31108.373046875	28921.916015625	31505.64453125	29754.431640625	30746.271484375	28008.607421875	29815.52734375	27666.98828125	29177.357421875	30926.56640625	23679.453125	34873.47265625	28810.453125	31970.640625
600	900	31915.34375	22961.09375	24171.2578125	26450.34375	31737.39453125	23702.15234375	29961.88671875	27436.0859375	23731.560546875	31121.169921875	27004.677734375	17815.18359375	28382.916015625	28138.978515625	30449.689453125	22878.00390625	24302.861328125	26936.677734375	30681.154296875	23043.1484375	29857.3515625	27112.71875	30132.609375	25090.353515625	27353.953125	28529.44921875	26577.201171875	10919.369140625	10895.8857421875	27811.30078125	27756.244140625	22374.984375	9955.8525390625	28307.109375	26643.302734375	25997.166015625	36958.80078125	21993.388671875	26082.19921875	26448.9453125	25486.763671875	27785.56640625	29321.451171875	27285.630859375	33027.08984375	27193.939453125	25961.302734375	24144.720703125	26196.705078125	26518.943359375	27202.857421875	27580.34375	38045.12109375	28121	27963.8203125	28019.505859375	29381.583984375	26740.064453125	28294.25390625	26268.57421875	27895.859375	26115.326171875	27339.986328125	28477.921875	23412.39453125	30840.341796875	26915.716796875	27626.78515625	27091.681640625	25398.66796875	35900.98828125	21509.224609375	25657.056640625	26959.533203125	25136.87890625	25430.62109375	30708.6796875	26696.73828125	33379.61328125	27003.076171875	25261.373046875	22388.2421875	26007.5	26293.93359375	27968.86328125	26799.513671875	39295.734375	27901.484375	27794.78515625	26837.65625	29358.02734375	27103.03125	28069.001953125	25274.890625	27466.025390625	25595.021484375	26542.19140625	28999.98046875	22296.392578125	30606.69140625	26529.25	28812.8681640625
900	1200	28464.58984375	22149.158203125	23274.6953125	23696.958984375	29704.6015625	21506.642578125	27551.974609375	26975.529296875	23328.68359375	31617.794921875	25361.12109375	17350.12109375	25634.765625	27137.603515625	29650.0078125	22082.9609375	23280.4453125	24169.689453125	28568.12890625	20502.708984375	27031.2890625	25882.43359375	30225.849609375	24372.939453125	25693.8359375	27572.2421875	25744.095703125	10881.966796875	10812.1953125	24177.69921875	27123.626953125	20268.30078125	10534.16015625	26221.923828125	24889.21484375	23573.912109375	34832.0703125	20722.083984375	24080.640625	23812.265625	23457.3515625	25132.822265625	27555.748046875	24626.236328125	31100.25	24318.19140625	23739.04296875	22765.552734375	24084.236328125	23866.908203125	25056.640625	25334.109375	36514.09375	26093.6640625	25175.4296875	25804.44140625	26635.67578125	24386.06640625	25362.63671875	23428.490234375	25620.06640625	23992.123046875	25246.751953125	25592.9765625	22177.099609375	28901.978515625	24774.033203125	25492.287109375	25074.537109375	22708.205078125	33708.5859375	20327.16796875	23860.072265625	24560.306640625	22935.58984375	23540.1328125	28671.583984375	24169.22265625	31581.982421875	24410.990234375	23020.14453125	20826.916015625	23467.52734375	24249.9140625	25185.4296875	24258.359375	37942.91796875	26171.916015625	24970.912109375	24324.7578125	26663.841796875	24833.982421875	25362.703125	22586.353515625	25164.466796875	23638.171875	24133.76953125	26227.716796875	20485.890625	27826.859375	24848.2421875	25598.814453125
1200	1500	25817.978515625	21245.078125	22159.962890625	21286.5078125	28088.875	19887.1484375	25186.283203125	25386.47265625	22295.623046875	30939.671875	24525.8359375	16461.9296875	23932.734375	26452.310546875	28510.60546875	21152.673828125	22201.73828125	21848.203125	26438.630859375	18332.091796875	25203.662109375	25113.833984375	29545.857421875	23484.345703125	22492.375	26411.853515625	24918.8125	10849.6083984375	10716.94921875	21782.162109375	25939.20703125	18465.11328125	10978.1474609375	23948.6015625	22038.826171875	21262.623046875	32572.3828125	20185.66015625	22310.427734375	21696.634765625	21468.95703125	22786.900390625	25882.560546875	22553.818359375	29483.64453125	22115.48828125	21947.662109375	21110.296875	22426.337890625	21754.982421875	22825.966796875	22705.58984375	35046.0546875	23685.083984375	23268.65625	23652.6640625	24464.91015625	22609.07421875	23090.69921875	21157.224609375	23501.083984375	21977.8671875	22802.341796875	23157.083984375	20549.69140625	25413.83984375	23184.927734375	23354.93359375	22885.810546875	20556.900390625	31235.8359375	19359.26171875	21853.26953125	22475.98828125	21350.76171875	21855.62890625	26541.140625	22510.6953125	29571.8515625	21973.95703125	20900.08984375	19761.5546875	21734	22007.15625	22555.447265625	22251.294921875	35727.2109375	23985.3671875	22641.802734375	22098.16796875	24360.201171875	22233.3203125	22900.18359375	20265.943359375	22961.02734375	21300.06640625	22085.048828125	23406.673828125	19544.416015625	25741.3125	22686.166015625	22846.1162109375
1500	1800	23456.865234375	20472.392578125	21064.181640625	19425.052734375	25877.689453125	18133.708984375	23585.462890625	23822.814453125	21071.16015625	29816.578125	23749.072265625	15840.4140625	21861.30078125	25832.58203125	27484.71484375	20324.689453125	21382.181640625	19791.8359375	24792.197265625	17348.541015625	22980.494140625	24338.78125	29417.275390625	21857.4453125	22009.751953125	25390.6640625	25142.08984375	10802.8701171875	10623.71484375	19887.478515625	24938.916015625	17072.279296875	11428.076171875	22148.404296875	21262.3828125	19210.375	30190.9609375	19012.41796875	20687.76953125	20141.583984375	19996.5078125	21117.501953125	24037.029296875	21084.5234375	27599.990234375	20851.142578125	19876.263671875	20017.681640625	20959.548828125	19896.025390625	20989.396484375	21148.890625	33372.11328125	22143.646484375	21288.390625	21935.7734375	22675.66015625	20932.861328125	21328.90234375	19339.01953125	21727.921875	20328.50390625	20972.548828125	21407.15625	18881.10546875	23671.25	21545.0703125	21538.52734375	21267.060546875	18627.849609375	29196.306640625	18633.3671875	20691.29296875	20473.0546875	19823.900390625	19739.41796875	24925.685546875	20710.87890625	28098.5625	20316.14453125	19159.35546875	18680.884765625	19978.943359375	20228.53125	21320.625	20715.6015625	33964.6015625	22196.28515625	20524.216796875	20664.326171875	22736.0546875	20828.736328125	20953.49609375	18448.00390625	21194.55859375	19775.15234375	20485.080078125	21870.50390625	18540.564453125	23528.6484375	21205.560546875	20566.4140625
1800	2100	21067.171875	19820.408203125	19869.4609375	17881.84765625	23835.02734375	16584.51953125	21981.70703125	22861.23828125	20324.1953125	29998.466796875	22469.84375	15145.94921875	19538.61328125	24612.041015625	24938.2265625	19699.10546875	20191.3046875	18063.939453125	23306.6484375	15190.5107421875	21427.552734375	22262.216796875	28105.2265625	21288.140625	19530.10546875	24382.3203125	22068.7109375	10580.28515625	10513.6787109375	19125.1953125	23821.05078125	15702.1748046875	12014.322265625	20920.041015625	20788.501953125	17842.8203125	28980.236328125	18494.3203125	19671.78515625	18325.275390625	19021.248046875	19868.294921875	22649.474609375	19382.638671875	26160.91796875	18842.498046875	18668.126953125	19433.28515625	20160.58984375	18586.947265625	19960.185546875	19336.03125	30582.931640625	20006.322265625	19978.75	20366.23046875	21306.677734375	19143.0625	19431.529296875	17716.0859375	19964.349609375	18725.27734375	19107.78515625	20585.794921875	17443.3515625	22229.33984375	20192.01171875	19855.890625	19381.259765625	16857.73828125	27685.107421875	17197.7578125	19459.544921875	18958.73828125	18439.982421875	18845.638671875	23466.462890625	19249.25	26692.61328125	19129.423828125	17848.005859375	18080.13671875	19315.69921875	18711.05078125	19779.57421875	19072.673828125	32555.244140625	20467.2578125	19125.388671875	19272.234375	21081.587890625	19312.66796875	19365.083984375	16842.58984375	19535.841796875	18170.33984375	18733.876953125	19636.966796875	16447.14453125	22110.484375	20005.0859375	18729.9833984375
2100	2400	18890	18969.671875	18563.57421875	16344.390625	21998.57421875	15540.2255859375	19586.701171875	21089.001953125	19086.384765625	28296.61328125	22778.373046875	14534.6669921875	19041.49609375	23271.716796875	23373.224609375	18766.259765625	18833.76171875	16412.0703125	21416.53125	14325.9140625	19380.255859375	20685.359375	27668.927734375	19857.5625	18062.40625	22755.84375	20937.595703125	10449.4716796875	10471.783203125	16896.59765625	22582.654296875	14519.4296875	12560.58984375	19652.279296875	19233.525390625	15847.6171875	26531.4609375	17649.240234375	18364.876953125	16645.310546875	17656.55078125	18083.708984375	20963.6796875	18162.837890625	24984.220703125	17724.12890625	17230.708984375	18279.291015625	19041.3515625	16581.39453125	18621.966796875	18077.9375	29650.048828125	18349.025390625	18276.646484375	18765.90625	19403.32421875	18000.138671875	17296.080078125	16200	18440.73828125	17173.16015625	17513.955078125	18867.5625	16257.046875	20769.494140625	18541.943359375	18406.6328125	17598.158203125	15432.7314453125	25213.23046875	17004.57421875	18385.609375	17137.55859375	17257.716796875	17247.486328125	21864.3671875	18210.07421875	24910.107421875	17296.171875	16513.15625	16533.115234375	18025.830078125	17027.99609375	18235.37890625	18041.3359375	29565.62109375	19102.0390625	17737.306640625	17787.88671875	19295.0234375	17711.259765625	17630.072265625	15406.935546875	18173.185546875	16787.69921875	17320.796875	18341.52734375	15777.501953125	20073.259765625	18333.236328125	16929.609375
2400	2700	17331.263671875	18128.966796875	17692.845703125	14878.306640625	20110.091796875	14331.7880859375	18740.427734375	20016.357421875	18135.7734375	27487.248046875	20421.708984375	13835.03515625	16369.6318359375	22387.12109375	21321.923828125	17909.345703125	18274.32421875	15205.609375	19648.359375	13503.7900390625	18161.5859375	19909.154296875	27019.6171875	18767.61328125	17439.162109375	21542.70703125	20035.662109375	10129.0498046875	10402.7890625	15649.68359375	21039.697265625	13424.595703125	12760.240234375	18220.654296875	17181.19921875	14762.0302734375	24800.8984375	16575.484375	17224.923828125	15126.3828125	16496.02734375	16811.025390625	19518.525390625	16975.99609375	23234.787109375	16543.310546875	15715.4462890625	17033.265625	17048.771484375	15704.3564453125	17435.365234375	16922.29296875	28102.2265625	16894.525390625	17327.71875	17395.203125	18403.173828125	16883.26953125	15948.4775390625	14807.828125	16870.671875	15660.435546875	16069.2646484375	17335.19140625	15120.552734375	17488.41015625	17192.166015625	17479.18359375	16262.1162109375	14288.9033203125	24223.5625	15595.0556640625	17325.53125	15923.115234375	15852.634765625	16256.4970703125	20628.818359375	16930.20703125	23385.66796875	16014.85546875	15141.1630859375	16631.521484375	16869.09765625	15849.0498046875	17116.3984375	16541.615234375	28490.953125	17694.423828125	16107.8896484375	16349.583984375	18264.82421875	16140.3974609375	16092.6904296875	13882.7236328125	16372.990234375	15257.3564453125	15830.3056640625	16702.578125	13895.82421875	19398.744140625	16978.53515625	15375.3349609375
