frame_start	frame_end	highbinding	left_cerebral_white_matter	left_cerebellum_white_matter	left_cerebellum_cortex	left_thalamus	left_caudate	left_putamen	left_pallidum	brain_stem	left_hippocampus	left_amygdala	csf	left_accumbens_area	left_ventraldc	left_choroid_plexus	right_cerebral_white_matter	right_cerebellum_white_matter	right_cerebellum_cortex	right_thalamus	right_caudate	right_putamen	right_pallidum	right_hippocampus	right_amygdala	right_accumbens_area	right_ventraldc	right_choroid_plexus	aircavity	skull	vermis	pons	csf_extracerebral	head_extracerebral	ctx_lh_bankssts	ctx_lh_caudalanteriorcingulate	ctx_lh_caudalmiddlefrontal	ctx_lh_cuneus	ctx_lh_entorhinal	ctx_lh_fusiform	ctx_lh_inferiorparietal	ctx_lh_inferiortemporal	ctx_lh_isthmuscingulate	ctx_lh_lateraloccipital	ctx_lh_lateralorbitofrontal	ctx_lh_lingual	ctx_lh_medialorbitofrontal	ctx_lh_middletemporal	ctx_lh_parahippocampal	ctx_lh_paracentral	ctx_lh_parsopercularis	ctx_lh_parsorbitalis	ctx_lh_parstriangularis	ctx_lh_pericalcarine	ctx_lh_postcentral	ctx_lh_posteriorcingulate	ctx_lh_precentral	ctx_lh_precuneus	ctx_lh_rostralanteriorcingulate	ctx_lh_rostralmiddlefrontal	ctx_lh_superiorfrontal	ctx_lh_superiorparietal	ctx_lh_superiortemporal	ctx_lh_supramarginal	ctx_lh_frontalpole	ctx_lh_temporalpole	ctx_lh_transversetemporal	ctx_lh_insula	ctx_rh_bankssts	ctx_rh_caudalanteriorcingulate	ctx_rh_caudalmiddlefrontal	ctx_rh_cuneus	ctx_rh_entorhinal	ctx_rh_fusiform	ctx_rh_inferiorparietal	ctx_rh_inferiortemporal	ctx_rh_isthmuscingulate	ctx_rh_lateraloccipital	ctx_rh_lateralorbitofrontal	ctx_rh_lingual	ctx_rh_medialorbitofrontal	ctx_rh_middletemporal	ctx_rh_parahippocampal	ctx_rh_paracentral	ctx_rh_parsopercularis	ctx_rh_parsorbitalis	ctx_rh_parstriangularis	ctx_rh_pericalcarine	ctx_rh_postcentral	ctx_rh_posteriorcingulate	ctx_rh_precentral	ctx_rh_precuneus	ctx_rh_rostralanteriorcingulate	ctx_rh_rostralmiddlefrontal	ctx_rh_superiorfrontal	ctx_rh_superiorparietal	ctx_rh_superiortemporal	ctx_rh_supramarginal	ctx_rh_frontalpole	ctx_rh_temporalpole	ctx_rh_transversetemporal	ctx_rh_insula	reference
0	30	249.9798278808594	237.1517639160156	176.6197509765625	207.4257965087891	257.3560791015625	253.4385070800781	352.373291015625	135.7262420654297	257.2416381835938	292.0411376953125	415.9288940429688	167.6630554199219	354.0870971679688	314.7821655273438	238.3210754394531	214.3619232177734	230.3314514160156	263.0640563964844	213.0879516601562	105.3869857788086	221.8931732177734	306.0963134765625	346.6275939941406	251.7177734375	656.9419555664062	327.039794921875	245.1018829345703	116.3151931762695	122.6479568481445	233.9070587158203	289.0050964355469	320.0738525390625	109.2418060302734	202.7318572998047	267.8082275390625	297.9220581054688	400.3605346679688	415.36572265625	286.6754760742188	288.1076049804688	139.1080627441406	243.8427886962891	213.0612487792969	400.4081420898438	258.5394592285156	409.3106079101562	187.0989990234375	432.0797729492188	365.2027587890625	427.5792236328125	301.6032409667969	455.2424011230469	315.6414489746094	302.81396484375	450.519775390625	336.0144653320312	404.1716613769531	220.0167694091797	344.4335327148438	339.672119140625	385.1333618164062	404.9832763671875	294.8924560546875	285.8265380859375	192.4744567871094	439.8655090332031	548.4977416992188	202.8926239013672	273.6334838867188	240.857421875	352.904052734375	476.4844360351562	274.0627136230469	225.2662048339844	200.8115844726562	264.7671813964844	211.4451904296875	456.7865600585938	303.869384765625	345.385986328125	225.2431030273438	245.1172943115234	331.264892578125	469.5708312988281	272.5065307617188	250.3761291503906	308.6173095703125	329.1462097167969	321.0391845703125	276.4346313476562	353.2483215332031	248.8658752441406	298.896484375	316.0142822265625	301.1343994140625	285.3202514648438	241.6931610107422	319.9986877441406	318.623291015625	616.6929931640625	485.7421569824219	234.3058624267578
30	60	12799.4453125	7829.9970703125	8469.7421875	11150.7080078125	11278.587890625	9340.8486328125	11743.0224609375	9001.578125	8743.9990234375	9938.5947265625	9632.7783203125	7021.22802734375	11789.2431640625	9427.5	8730.19140625	7768.54345703125	7947.51513671875	10838.40234375	10867.4716796875	9736.236328125	11802.9970703125	8545.41015625	8661.03515625	9162.650390625	11377.1474609375	10036.478515625	8752.8505859375	3257.8544921875	3440.415771484375	10847.384765625	9249.2373046875	10911.3994140625	3316.754638671875	9868.26171875	11117.369140625	11319.08203125	14328.49609375	10665.462890625	10283.072265625	9844.8515625	9363.7353515625	12760.1865234375	11765.095703125	11025.2158203125	13252.93359375	11717.2724609375	9728.9482421875	10975.927734375	11515.830078125	12396.1943359375	10269.103515625	11544.8369140625	14640.5546875	10795.8798828125	12525.7841796875	11053.2080078125	11928.2099609375	11402.224609375	12016.712890625	11584.208984375	9937.31640625	10469.8662109375	10707.568359375	10668.86328125	7628.1591796875	13413.4931640625	13271.912109375	12246.8701171875	10966.916015625	12237.412109375	13483.6416015625	10427.9208984375	9860.513671875	10008.2919921875	9210.0634765625	13453.400390625	11042.251953125	11614.62890625	13035.119140625	11571.19921875	9821.6318359375	9813.46875	10419.34765625	11605.5625	10699.318359375	10809.509765625	13088.1240234375	10546.4853515625	11320.6181640625	10819.9248046875	11789.044921875	11172.98046875	11739.69140625	11333.0908203125	9703.6728515625	10298.8720703125	10928.6630859375	10719.3525390625	9218.1943359375	15472.357421875	12486.5	11712.89990234375
60	90	32951.74609375	18873.232421875	21063.5078125	27665.892578125	26613.041015625	25803.580078125	30089.859375	24175.90234375	19528.90625	22572.169921875	22194.62890625	16632.177734375	25012.8046875	22489.6640625	23091.47265625	18805.689453125	20474.333984375	26813.40625	27376.16796875	24389.482421875	29589.59765625	23433.57421875	21285.705078125	19512.068359375	26928.005859375	22443.5078125	22842.541015625	6484.32958984375	7325.822265625	27093.19140625	22310.931640625	22913.443359375	6878.9970703125	25399.265625	23734.314453125	28158.673828125	33191.9765625	22924.64453125	24318.685546875	24119.322265625	23414.998046875	27574.125	27318.912109375	25333.470703125	29558.564453125	27175.578125	23589.45703125	24648.283203125	25425.619140625	27892.52734375	27126.59765625	28054.880859375	33122.44921875	25464.25390625	27833.33984375	26657.0390625	28157.365234375	25424.693359375	28293.505859375	27098.47265625	24677.99609375	23922.296875	26106.658203125	27780.5390625	18953.546875	32510.05859375	27399.048828125	27192.154296875	26450.564453125	29211.9375	30644.814453125	22769.0859375	22287.990234375	24614.763671875	22851.52734375	28596.095703125	26861.431640625	26870.501953125	29711.255859375	27401.328125	23875.4609375	23798.861328125	25854.77734375	28174.736328125	26287.603515625	27632.8359375	31800.505859375	25149.474609375	28402.765625	26331.509765625	27701.251953125	27514.98046875	29294.28125	27089.341796875	23666.037109375	23818.15234375	25208.71484375	29826.642578125	19587.12109375	31959.3671875	26751.29296875	29600.224609375
90	120	40977.1640625	23600.921875	26782.4609375	34196.984375	33487.6015625	30565.890625	37573.17578125	28969.3828125	23512.89453125	25760.28515625	22922.1484375	19661.43359375	32706.404296875	27245.845703125	25653.11328125	23510.529296875	26168.41796875	33905.0078125	34234.26171875	30476.03125	36614.98828125	26627.216796875	25088.857421875	22087.41796875	31773.408203125	27372.62109375	27056.298828125	7047.30029296875	8198.353515625	34861.47265625	28297.787109375	25657.8125	7758.08544921875	31096.0703125	29530.744140625	34957.984375	40238.7265625	27046.21875	29713.376953125	30562.72265625	29602.4140625	33354.75390625	34325.84765625	32384.87890625	35800.55859375	32141.83203125	29880.25390625	28846.04296875	31100.65234375	33816.30078125	32113.73046875	34238.4609375	41879.97265625	32373.3984375	34655.4140625	32931.30859375	33728.9921875	28107.923828125	35639.078125	33333.32421875	30548.8984375	29500.373046875	31867.953125	34685.16796875	23556.21484375	37988.3359375	31190.642578125	32452.05859375	31483.138671875	36380.51171875	36319.04296875	25712.990234375	28459.134765625	30932.41015625	28301.388671875	34035.18359375	32846.828125	32012.451171875	35003.69140625	32316.3671875	29167.564453125	25962.220703125	31225.837890625	34931.55859375	32616.498046875	34324.7421875	40423.3125	31456.12109375	35568.79296875	31976.888671875	33516.5859375	32256.251953125	36764.66015625	32852.7734375	29429.5546875	28987.93359375	31129.51953125	36071.5703125	25124.634765625	38079.359375	30496.169921875	37312.060546875
120	150	42626.69140625	24443.953125	27845.66796875	35584.2734375	33469.86328125	31722.0234375	39544.91015625	31556.798828125	23657.7578125	25639.380859375	22355.62890625	19641.046875	31754.8515625	27131.5703125	23814.85546875	24409.53515625	26728.568359375	34889.53125	34962.65625	31609.68359375	39228.84375	28923.6953125	26129.037109375	24095.18359375	32280.240234375	28291.337890625	24303.853515625	6624.19921875	7993.44287109375	34156.72265625	29229.43359375	24999.68359375	7660.31591796875	32236.853515625	30121.296875	35750.75390625	40274.68359375	26712.078125	30805.68359375	31519.5	29779.66796875	33540.01171875	34741.984375	32610.529296875	36472.43359375	33357.19140625	30441.02734375	28619.189453125	33028.54296875	34962.41015625	32795.01171875	34628.77734375	42197.6875	32938.02734375	35067.00390625	34430.16796875	34872.296875	29798.4296875	36770.5078125	33616.48828125	31454.71875	29487.837890625	32869.5390625	34367.9140625	23960.9921875	40474.3046875	32156.330078125	35634.82421875	32396.5703125	36985.796875	37744.24609375	25758.83203125	29331.642578125	31660.51171875	29123.626953125	34280.9296875	33727.16796875	32711.119140625	35313.671875	33832.08203125	30469.78515625	26956.40625	33448.1328125	36186.1484375	33456.2265625	34810.30078125	40723.8359375	32300.103515625	36468.85546875	33033.44140625	35042.80078125	33220.83203125	37762.109375	34417.23046875	30932.220703125	30054.73828125	32846.5859375	38680.38671875	23161.724609375	37863.53515625	30997.5546875	38858.60546875
150	180	41824.16796875	24599.28515625	28151.70703125	35139.546875	34823.4375	30695.208984375	37851.359375	28715.11328125	23242.71875	25866.55859375	22563.517578125	19798.84765625	35015.140625	27919.310546875	28877.62109375	24440.26171875	27180.462890625	34752.31640625	36284.6640625	31249.0546875	37246.98046875	29014.232421875	26060.8515625	24060.748046875	31413.189453125	28155.166015625	25774.1328125	6618.67041015625	7895.28466796875	35382.77734375	28308.078125	24403.78125	7679.36669921875	31814.435546875	30702.78125	35208.80078125	40165.53125	26487.80078125	31310.171875	31352.228515625	30279.130859375	31077.18359375	34084.0078125	32874.515625	36229.57421875	33031.73828125	30313.7109375	30303.591796875	32707.185546875	35082.16015625	32926.07421875	35971.76953125	41568.703125	32536.666015625	34163.375	33068.546875	35169.93359375	29208.56640625	36208.25	34042.73828125	31604.46875	30179.51171875	32280.09765625	36074.25390625	23173.021484375	37949.02734375	31877.21875	32585.3984375	32547.244140625	35212.10546875	37844.23046875	25096.587890625	29738.955078125	31753.001953125	29788.373046875	32136.822265625	33973.8203125	33007.23046875	34399.390625	33590.51171875	30101.7109375	27568.318359375	31795.236328125	35368.07421875	34834.45703125	35781.8203125	40925.18359375	31263.80078125	36451.265625	32650.455078125	34309.2578125	34289.4453125	37200.89453125	33525.33203125	30501.619140625	29151.38671875	32337.583984375	34402.46875	21798.037109375	37337.09375	31818.46875	38480.423828125
180	240	41736.84765625	24225.521484375	27800.943359375	34439.49609375	33732.40625	30938.07421875	38478.09765625	30527.751953125	23790.0703125	26715.884765625	24598.9453125	19821.37109375	32790.359375	26997.755859375	25661.1640625	24288.98828125	26408.75	34025.7890625	35129.68359375	31338.94921875	37698.7421875	29548.998046875	26241.5078125	23009.51171875	31848.12109375	27515.19140625	27569.576171875	6404.48193359375	7779.0068359375	35543.26171875	28248.93359375	23437.8125	7758.9140625	33039.63671875	29557.568359375	34226.38671875	39131.48828125	25571.51953125	30815.267578125	30993.58984375	29696.306640625	31673.896484375	33371.69921875	31934.091796875	34848.86328125	32252.861328125	29941.712890625	29571.45703125	31653.849609375	34162.33203125	32449.72265625	34054.14453125	41692.765625	31801.451171875	33513.04296875	32948.75	33975.5546875	29042.203125	35664.98046875	32991.4609375	30609.08203125	29369.087890625	32183.146484375	33372.1953125	23202.828125	38394.1015625	31266.109375	32135.240234375	32847.72265625	35265.63671875	35667.7890625	24456.140625	28905.41796875	30778.1015625	28943.509765625	32869.37109375	32957.8046875	32188.64453125	33625.16796875	33021.0859375	29777.666015625	26309.689453125	32123.046875	34540.34765625	31915.16796875	33175.7578125	39135.12109375	31239.900390625	35539.296875	32533.896484375	34280.33984375	33336.88671875	36007.64453125	32987.44921875	29768.203125	29518.990234375	31941.216796875	35419.85546875	22760.47265625	37290.9375	30544.435546875	37757.84765625
240	300	39537.359375	23777.86328125	27165.509765625	33406.796875	33545.8515625	29370.69921875	37095.89453125	28955.25390625	23292.619140625	26416.810546875	23840.49609375	19504.595703125	32800.96875	27017.71875	26348.423828125	23761.390625	25725.283203125	32983.7109375	34524.6171875	28048.4296875	35978.61328125	27962.97265625	26371.001953125	24182.265625	32406.90234375	27227.693359375	26941.5546875	6323.68017578125	7739.439453125	32588.69921875	27745.607421875	22533.580078125	7870.7158203125	31475.634765625	30093.416015625	32409.455078125	37689.92578125	26678.306640625	29547.947265625	29333.041015625	28806.08984375	29763.3515625	31622.232421875	31129.173828125	33816.3359375	31943.7421875	28660.802734375	28059.224609375	31144.541015625	32792.1875	31705.232421875	31938.673828125	38971.06640625	31032.470703125	33685.25	32115.146484375	32773.58203125	28577.931640625	33950.45703125	31911.08203125	29757.771484375	29005.267578125	30742.40625	32096.1015625	23015.857421875	35884.4609375	30671.681640625	32204.798828125	31810.408203125	33090.296875	34573.89453125	24074.162109375	28166.80078125	29786.779296875	28402.35546875	31706.78125	31911.03515625	31560.201171875	32471.62109375	31943.55078125	28708.5078125	27056.513671875	30565.337890625	33617.42578125	31244.796875	32308.998046875	37593.71875	29480.626953125	33409.3671875	31214.94140625	32314.28515625	33308.68359375	34771.11328125	31618.755859375	29004.412109375	28175.30859375	30538.8359375	32005.4921875	23436.5	36257.6953125	29703.97265625	36608.037109375
300	360	39108.66796875	23377.029296875	26594.54296875	32356.06640625	33144.8828125	30013.07421875	36381.7734375	29757.12890625	23415.556640625	26953.56640625	23135.7578125	19565.70703125	32062.89453125	27337.25390625	28036.20703125	23290.107421875	25591.44140625	31900.65234375	33470.45703125	28365.23828125	35504.96875	28761.404296875	27114.0390625	23374.431640625	31019.23828125	26878.822265625	29394.462890625	6099.6591796875	7767.41015625	31755.49609375	27490.30859375	21784.2109375	7980.47021484375	30610.04296875	28341.197265625	32014.1171875	36140.44921875	25347.46484375	29224.244140625	28545.580078125	27703.271484375	29737.94921875	30676.2734375	29717.140625	32374.171875	30186.41796875	28586.935546875	26698.23046875	29394.107421875	31284.716796875	30496.587890625	31754.392578125	36586.98046875	30028.115234375	32030.0234375	30801.623046875	31409.59765625	28030.0703125	33016.890625	30421.09375	28379.404296875	27783.505859375	29868.77734375	30874.919921875	24320.5703125	34603.609375	29471.76953125	31088.025390625	30540.87109375	32764.111328125	33857.4765625	23206.23828125	27481.75390625	28629.6328125	27683.03125	30456.66796875	30806.6484375	30214.033203125	31337.35546875	31345.296875	27521.365234375	26454.98046875	30293.294921875	32623.390625	30011.75390625	30750.53125	36517.8828125	28724.4140625	32952.5234375	30442.181640625	31514.9296875	31815.77734375	33449.02734375	30632.53515625	27760.703125	27577.71484375	29345.19921875	31860.5859375	22276.884765625	33497.5234375	29346.57421875	35381.015625
360	480	37817.3984375	22910.859375	26349.46875	30878.0390625	32501.115234375	28630.0703125	34466.2578125	30323.83984375	22853.0625	26646.525390625	24229.16015625	19073.36328125	29933.177734375	26007.537109375	27878.326171875	22845.20703125	25501.611328125	30454.099609375	33211.2421875	27767.619140625	34904.8984375	27958.13671875	26772.8125	22825.50390625	30211.51171875	26916.66015625	28368.208984375	6189.4833984375	7736.5888671875	31622.103515625	26742.99609375	20750.060546875	8145.15234375	29210.98828125	27527.689453125	30155.826171875	34761.15625	24657.7890625	27818.0234375	27124.04296875	26684.73046875	27880.28125	29528.25390625	28502.216796875	31277.576171875	29543.5078125	27225.8515625	26350.44140625	28090.0078125	30022.650390625	28203.5625	29895.861328125	36214.875	28805.44921875	30074.078125	29603.80078125	29790.556640625	27514.43359375	31136.578125	29100.701171875	27393.95703125	27017.23046875	28877.056640625	29951.76953125	23064.54296875	34245.26171875	28950.80859375	29066.62890625	29360.771484375	31215.740234375	31643.44140625	23567.376953125	26716.283203125	27134.052734375	26557.666015625	28787.044921875	29459.72265625	29283.58984375	29690.306640625	29995.146484375	26460.34375	25271.087890625	28629.111328125	30804.73046875	29030.52734375	29580.35546875	33837.08203125	27589.193359375	31319.5078125	28713.2734375	30050.162109375	30102.064453125	31703.453125	29044.0625	26329.255859375	26580.767578125	27891.498046875	30739.115234375	22846.703125	33382.6796875	28041.9296875	33629.103515625
480	600	35455.1875	22280.19140625	25505.630859375	29146.236328125	31865.79296875	26452.865234375	32732.76171875	27378.095703125	22845.451171875	27677.66015625	23460.515625	18989.12109375	28858.3515625	26107.384765625	29654.77734375	22293.171875	24793.33984375	28993.482421875	31620.45703125	26229.046875	32722.83203125	27209.619140625	27068.03515625	22283.087890625	30220.150390625	26573.62109375	28868.693359375	5924.8251953125	7754.8974609375	29166.818359375	26187.96875	19634.6875	8306.884765625	27966.779296875	26366.509765625	28495.29296875	33010.03515625	24076.3828125	26699.982421875	25639.76171875	25587.046875	26086.771484375	27966.841796875	26976.318359375	29429.818359375	28164.455078125	26202.537109375	26131.1171875	26670.080078125	28109.736328125	27739.12890625	28696.6015625	33736.90625	27137.12890625	28440.818359375	28056.900390625	28128.22265625	27137.60546875	29372.603515625	27360.6328125	25362.2421875	26033.705078125	27396.5	27974.181640625	22377.8125	30747.169921875	27754.076171875	28169.525390625	27115.2734375	28621.693359375	29843.0703125	23332.357421875	25562.859375	25759.328125	25471.58203125	27009.32421875	28037.208984375	27933.873046875	28954.193359375	28487.330078125	25251.833984375	24814.9609375	26759.501953125	28974.8671875	27543.939453125	27615.23046875	32696.955078125	26079.169921875	29900.7734375	26966.392578125	27827.58203125	29398.02734375	29722.99609375	27198.259765625	24823.998046875	25468.0234375	26816.65234375	29373.783203125	21946.017578125	31695.564453125	27741.626953125	31783.9052734375
600	900	33007.3828125	21388.126953125	24702.943359375	26767.7109375	29834.9140625	25398.158203125	30596.142578125	27987.16015625	22404.84375	27092.509765625	23081.318359375	18536	28511.189453125	25740.43359375	29930.50390625	21276.03515625	24056	26627.423828125	30785.107421875	24401.130859375	30441.5703125	27010.583984375	26861.08203125	22465.720703125	26973.013671875	26241.228515625	28991.529296875	5912.26171875	7832.953125	26084.634765625	25824.306640625	17942.603515625	8629.923828125	25705.41796875	24951.02734375	25422.4609375	30080.283203125	23133.83984375	24790.5703125	23421.009765625	23855.216796875	24044.130859375	25661.822265625	24893.908203125	27286.359375	25858.92578125	23881.328125	23715.3125	24510.291015625	25843.85546875	24777.04296875	25861.634765625	31466.474609375	25198.71484375	26161.912109375	25787.583984375	25518.478515625	25330.986328125	26368.00390625	25033.794921875	23429.783203125	24227.69921875	24803.73828125	26263.646484375	21852.591796875	29562.875	26081.07421875	25744.267578125	25985.916015625	25817.5	27745.962890625	22198.001953125	23972.732421875	23319.125	23633.69921875	24706.359375	25724.806640625	25718.384765625	26616.50390625	26229.6015625	23382.81640625	23497.904296875	25158.080078125	26317.26953125	24915.603515625	25396.56640625	30128.107421875	24200.212890625	26785.1328125	24607.66796875	25550.962890625	26406.4375	26933.365234375	24742.95703125	22745.6328125	23749.955078125	24078.072265625	26023.181640625	20962.26953125	28122.4453125	25493.990234375	29017.5068359375
900	1200	29232.390625	20194.43359375	22992.9921875	23685.2109375	27531.22265625	22879.552734375	27478.388671875	26473.904296875	21438.609375	26199.818359375	21686.82421875	17741.251953125	25803.029296875	24691.025390625	30251.47265625	20101.92578125	22627.416015625	23577.333984375	28583.9453125	21622.14453125	27232.154296875	25303.82421875	26467.255859375	21184.853515625	24451.408203125	25241.458984375	29386.955078125	5732.31640625	7873.06201171875	22926.53515625	25010.216796875	16023.806640625	8966.8193359375	23050.607421875	22776.3203125	22597.203125	27259.24609375	21954.951171875	22499.81640625	20804.46484375	21473.69140625	21684.03125	23040.908203125	22302.818359375	24612.896484375	23474.439453125	21517.494140625	21922.109375	21677.974609375	22816.341796875	21937.47265625	23146.1015625	28762.58984375	22553.857421875	23079.24609375	23158.763671875	22514.66796875	23399.63671875	23404.150390625	22166.431640625	20876.5703125	21835.59765625	22126.208984375	22736.376953125	20083.8125	25576.939453125	23934.20703125	22824.958984375	23328.732421875	22513.23828125	24929.51171875	20149.6640625	21615.3203125	20557.419921875	21486.208984375	22029.712890625	23261.84375	23093.81640625	24023.884765625	23495.287109375	21065.8046875	21430.298828125	22380.7734375	23098.220703125	22502.4296875	22499.37109375	27758.181640625	21738.0390625	23726.736328125	21859.79296875	22557.86328125	24075.505859375	23683.017578125	21878.3828125	20380.626953125	21563.7265625	21215.7578125	23838.771484375	19633.716796875	25005.46875	23174.56640625	25495.6240234375
1200	1500	26260.33984375	19303.55078125	21624.962890625	21198.771484375	25479.619140625	20590.216796875	24804.19921875	25117.234375	20574.244140625	25664.431640625	20704.77734375	16968.08203125	23261.984375	23705.423828125	29219.291015625	19162.125	21097.66015625	20989.166015625	26542.076171875	20212.515625	24734.853515625	23748.439453125	25993.21484375	20332.30859375	22475.900390625	23869.126953125	28028.93359375	5452.34033203125	7936.328125	20611.224609375	23466.587890625	14473.361328125	9204.2158203125	21360.642578125	21195.806640625	20394.595703125	24775.173828125	19461.357421875	20527.919921875	18736.83984375	19725.48828125	19839.17578125	21151.89453125	20606.060546875	22556.955078125	21308.873046875	19543.013671875	19870.72265625	19976.82421875	21198.189453125	20573.306640625	21047.18359375	26457.375	20600.93359375	21084.978515625	21158.662109375	20203.400390625	21230.11328125	21089.021484375	20012.125	19001.076171875	19945.09765625	20154.57421875	20859.265625	18265.66015625	23771.216796875	21865.2734375	21088.421875	21381.9296875	19865.734375	22769.26953125	19062.837890625	19939.1640625	18466.994140625	19526.66015625	20151.150390625	21164.005859375	21099.337890625	21697.9140625	21294.990234375	18931.87890625	19902.185546875	20369.91796875	20800.08984375	20477.634765625	20466.224609375	25132.681640625	19585.626953125	21516.771484375	19983.81640625	20466.669921875	21907.798828125	20970.2109375	19587.966796875	18324.18359375	19648.640625	19489.962890625	20846.88671875	17821.294921875	22959.072265625	21136.3828125	22589.2294921875
1500	1800	23806.71484375	18423.22265625	20229.04296875	19063.400390625	24264.15625	18600.763671875	23184.46875	23262.095703125	19755.779296875	25149.638671875	19891.8203125	16393.716796875	21205.677734375	22490.3515625	29248.90625	18230.8359375	20239.923828125	19039.654296875	24445.576171875	18155.71875	22783.474609375	22058.119140625	25478.572265625	19025.314453125	21309.224609375	23480.720703125	28630.396484375	5297.22998046875	7983.3857421875	18632.12890625	22822.12890625	13258.044921875	9407.5751953125	19888.59375	18920.0625	18408.287109375	22444.75390625	19397.826171875	18811.662109375	16842.291015625	18165.4921875	18913.4609375	19260.146484375	19195.2734375	20926.146484375	19153.537109375	18045.794921875	18254.71484375	18498.818359375	19247.67578125	18831.384765625	19448.435546875	24348.072265625	18851.07421875	19436.267578125	19520.2734375	18650.474609375	19841.447265625	19183.326171875	18270.271484375	17282.697265625	18629.37109375	18408.83984375	19341.017578125	17400.15234375	22023.64453125	20470.34375	19241.900390625	19932.91796875	18091.44921875	20739.228515625	18308.826171875	18670.58203125	16980.720703125	18125.390625	18340.462890625	19522.953125	19817.025390625	20338.099609375	19510.638671875	17536.439453125	17834.181640625	18888.669921875	18859.884765625	18565.525390625	18637.96875	23160.33203125	18152.076171875	20213.41015625	18397.77734375	18689.5078125	19343.92578125	19244.72265625	17856.32421875	16760.0546875	17999.6171875	17722.654296875	19283.12109375	17045.328125	20966.42578125	19981.869140625	20264.5390625
1800	2100	22000.337890625	17638.869140625	19131.0390625	17410.08203125	22721.083984375	17937.02734375	21637.064453125	22075.4453125	18821.298828125	24384.55078125	18711.515625	15735.1552734375	20699.673828125	22060.630859375	28173.970703125	17391.67578125	19246.80078125	17358.216796875	22872.373046875	16816.15234375	21018.27734375	21654.625	25500.55859375	18100.341796875	20318.90625	21482.107421875	28090.05078125	5248.857421875	8047.67431640625	16695.87109375	21807.701171875	12289.58984375	9570.7802734375	18020.240234375	17655.037109375	17058.6796875	20884.7265625	18233.07421875	17758.033203125	15617.4814453125	16872.48828125	16765.78515625	17966.369140625	17843.162109375	19468.45703125	18365.326171875	16751.43359375	17143.654296875	16943.203125	17225.37109375	17722.41015625	18015.998046875	22326.0703125	17516.5546875	17558.66796875	18004.9453125	17130.7109375	18215.59765625	17933.205078125	16824.39453125	15812.5869140625	17303.216796875	16951.1640625	17760.330078125	16137.517578125	19553.45703125	18892.65234375	17624.015625	17754.095703125	16941.25	19440.1015625	16999.41796875	17252.009765625	15384.3310546875	16801.830078125	16674.533203125	18147.587890625	18479.46875	18587.783203125	17973.64453125	16001.0458984375	17182.8046875	16674.87109375	17252.8203125	17269.51953125	17283.82421875	21762.548828125	16692.48046875	18114.55859375	16909.716796875	17060.884765625	18458.677734375	17729.91015625	16341.2021484375	15365.853515625	16788.103515625	16257.251953125	18246.07421875	16402.3203125	19148.53125	18499.974609375	18358.076171875
2100	2400	19977.970703125	16935.09375	18625.884765625	16105.6416015625	21545.005859375	16485.794921875	19518.7109375	22330.5625	18255.552734375	24004.384765625	18118.078125	14858.353515625	17945.41015625	20592.47265625	28849.935546875	16602.1875	18356.685546875	16012.7333984375	21087.796875	15593.0634765625	19456.12890625	20682.890625	24191.21875	16895.88671875	18451.12890625	21213.326171875	28358.08984375	5147.216796875	7970.7412109375	15858.462890625	20965.86328125	11451.03125	9645.8603515625	17217.1640625	16939.904296875	15827.908203125	19427.9296875	17058.5078125	16338.7001953125	14536.7353515625	15797.3330078125	15670.5537109375	16653.568359375	16206.5888671875	17798.115234375	16818.0390625	15500.5869140625	15831.7666015625	16019.666015625	16508.708984375	16574.30859375	17036.076171875	21567.8125	16349.1064453125	16765.060546875	16872.7578125	15911.302734375	17339.48828125	16581.20703125	15637.080078125	14761.8349609375	16074.2626953125	15963.796875	16461.15234375	16076.0693359375	18772.533203125	17636.06640625	16457.05859375	16501.666015625	15347.03515625	17675.728515625	16087.8203125	16229.05078125	14347.1640625	15722.458984375	15328.9609375	16838.025390625	17140.373046875	17319.921875	16681.0625	14780.4033203125	15478.5458984375	15808.384765625	16145.14453125	16189.3056640625	16122.251953125	19879.84765625	15361.4375	16969.751953125	15537.9697265625	15824.171875	17382.958984375	16429.08203125	15029.7109375	14313.1015625	15548.2373046875	15195.705078125	17054.005859375	15279.609375	17864.076171875	17400.423828125	16845.2978515625
