time	plasma_radioactivity	metabolite_parent_fraction	whole_blood_radioactivity
217.20000000000002	6753.917888499526	0.9881112176414191	10855.402859313654
313.2	6459.092561752262	0.9805851063829788	8960.082972752094
640.8	4345.862629434202	0.9313160422670509	7250.036376235559
937.8000000000001	4052.430334942915	0.8996923076923076	6324.565446746423
1815.0	2526.861010039416	0.7921985815602837	4716.558462980248
2710.2000000000003	2297.428271601381	0.7727256738833597	3704.7195336204995
3634.7999999999997	2060.460543764241	0.7526132404181185	3207.125095041825
5407.200000000001	1805.9170664189955	0.7557251908396947	2762.134207843638
7221.0	1406.5645693214094	0.8285714285714286	2486.749143740061
