time	plasma_radioactivity	whole_blood_radioactivity
177.0	17966.78585486927	34852.397638675706
294.0	11944.497187047064	34734.752053038574
598.2	9374.20248030495	26144.39649000125
903.0	8234.16277389418	22451.113403535757
1801.2	6378.697158293455	15100.792010447822
2698.7999999999997	4524.470998681776	11641.686189493086
3682.8	3366.0518471732917	7592.960058148341
5404.2	2501.1278232223494	5128.146038844128
7185.0	2391.4914104360137	4370.17362917263
