time	plasma_radioactivity	metabolite_parent_fraction	whole_blood_radioactivity
186.0	38900.3031737593	0.9784754225039138	35983.9831497412
301.8	29528.720716564087	0.9516977420458432	29521.225542274882
606.0	32605.402609095523	0.9879633710088969	25087.829950206964
907.1999999999999	17213.626440255048	0.972357574787058	22758.748116429557
1825.8	12824.06890246007	0.9422730779120597	17262.432226324323
2736.0	10976.682746548542	0.8715070114919067	13327.170569945494
3627.0	9232.542527363743	0.9129989764585466	11543.81886825345
5428.8	12328.99613044575	0.9471723110043885	9052.951073575032
7240.2	13281.630288738339	0.9575334496800465	7163.985892143011
