frame_start	frame_end	highbinding	left_cerebral_white_matter	left_cerebellum_white_matter	left_cerebellum_cortex	left_thalamus	left_caudate	left_putamen	left_pallidum	brain_stem	left_hippocampus	left_amygdala	csf	left_accumbens_area	left_ventraldc	left_choroid_plexus	right_cerebral_white_matter	right_cerebellum_white_matter	right_cerebellum_cortex	right_thalamus	right_caudate	right_putamen	right_pallidum	right_hippocampus	right_amygdala	right_accumbens_area	right_ventraldc	right_choroid_plexus	aircavity	skull	vermis	pons	csf_extracerebral	head_extracerebral	ctx_lh_bankssts	ctx_lh_caudalanteriorcingulate	ctx_lh_caudalmiddlefrontal	ctx_lh_cuneus	ctx_lh_entorhinal	ctx_lh_fusiform	ctx_lh_inferiorparietal	ctx_lh_inferiortemporal	ctx_lh_isthmuscingulate	ctx_lh_lateraloccipital	ctx_lh_lateralorbitofrontal	ctx_lh_lingual	ctx_lh_medialorbitofrontal	ctx_lh_middletemporal	ctx_lh_parahippocampal	ctx_lh_paracentral	ctx_lh_parsopercularis	ctx_lh_parsorbitalis	ctx_lh_parstriangularis	ctx_lh_pericalcarine	ctx_lh_postcentral	ctx_lh_posteriorcingulate	ctx_lh_precentral	ctx_lh_precuneus	ctx_lh_rostralanteriorcingulate	ctx_lh_rostralmiddlefrontal	ctx_lh_superiorfrontal	ctx_lh_superiorparietal	ctx_lh_superiortemporal	ctx_lh_supramarginal	ctx_lh_frontalpole	ctx_lh_temporalpole	ctx_lh_transversetemporal	ctx_lh_insula	ctx_rh_bankssts	ctx_rh_caudalanteriorcingulate	ctx_rh_caudalmiddlefrontal	ctx_rh_cuneus	ctx_rh_entorhinal	ctx_rh_fusiform	ctx_rh_inferiorparietal	ctx_rh_inferiortemporal	ctx_rh_isthmuscingulate	ctx_rh_lateraloccipital	ctx_rh_lateralorbitofrontal	ctx_rh_lingual	ctx_rh_medialorbitofrontal	ctx_rh_middletemporal	ctx_rh_parahippocampal	ctx_rh_paracentral	ctx_rh_parsopercularis	ctx_rh_parsorbitalis	ctx_rh_parstriangularis	ctx_rh_pericalcarine	ctx_rh_postcentral	ctx_rh_posteriorcingulate	ctx_rh_precentral	ctx_rh_precuneus	ctx_rh_rostralanteriorcingulate	ctx_rh_rostralmiddlefrontal	ctx_rh_superiorfrontal	ctx_rh_superiorparietal	ctx_rh_superiortemporal	ctx_rh_supramarginal	ctx_rh_frontalpole	ctx_rh_temporalpole	ctx_rh_transversetemporal	ctx_rh_insula	reference
0	30	3183.110107421875	2010.559326171875	2099.04296875	2802.44384765625	3073.546630859375	2309.711181640625	3000.1484375	2214.2607421875	2338.465087890625	2390.27880859375	3302.0234375	1597.41064453125	4053.5703125	2962.46240234375	2041.738525390625	1984.015869140625	2073.76513671875	2880.404541015625	2999.553466796875	2239.5859375	2766.064697265625	2582.321533203125	2629.2021484375	2227.5966796875	2708.037353515625	2739.040771484375	2103.841064453125	977.6593017578125	1158.818237304688	2930.05224609375	2173.14501953125	3098.830810546875	744.2889404296875	3152.950927734375	3139.138671875	2684.013916015625	3672.46435546875	3239.694091796875	2790.642822265625	2606.383544921875	2372.734375	2841.0859375	2596.5087890625	3360.251953125	3259.17529296875	3592.548095703125	2191.298583984375	2664.625	2671.842529296875	3214.8115234375	2770.369873046875	3632.849365234375	3662.425537109375	2881.373779296875	3514.152587890625	2723.670166015625	2824.5654296875	3689.69140625	2734.064697265625	3117.890869140625	2338.818603515625	2893.08544921875	2937.025390625	3156.993896484375	2068.49169921875	4341.021484375	3737.047119140625	2896.841552734375	3328.41943359375	2718.16748046875	3622.375244140625	3303.404296875	2875.916748046875	2514.77490234375	2311.19384765625	3072.876220703125	2592.64794921875	3190.259521484375	3440.667236328125	3468.9365234375	2378.096435546875	2336.01318359375	2424.433349609375	3269.095947265625	2710.785888671875	3018.291015625	3448.440673828125	2667.86328125	2997.64111328125	2469.636474609375	2994.955322265625	3828.231689453125	2731.3955078125	2751.716064453125	2341.147216796875	3085.33984375	3040.0048828125	3106.9306640625	2307.1787109375	4564.9287109375	4057.019287109375	2942.560302734375
30	60	30486.19140625	17833.046875	19111.462890625	24818.51953125	26412.48828125	22515.623046875	28124.0859375	19983.02734375	18465.01171875	19243.41015625	20816.337890625	13589.3095703125	23176.615234375	20502.82421875	17818.41015625	17888.298828125	19860.037109375	25056.267578125	25366.5546875	22538.365234375	26252.0625	22103.5546875	22365.638671875	19741.853515625	22644.37890625	20732.080078125	17480.4765625	5941.65380859375	8454.30078125	26099.0625	20321.9765625	23144.814453125	5839.04296875	24593.556640625	23043.271484375	24940.44921875	31408.095703125	19694.173828125	22890.486328125	23367.22265625	21099.013671875	25507.5703125	24399.6171875	25823.328125	27561.759765625	26430.21875	21127.59765625	19573.546875	22919.84765625	27300.9921875	23528.9765625	27231.4296875	32861.22265625	23930.41015625	27713.998046875	23602.970703125	26226.75	26870.384765625	26290.125	25486.08984375	21846.357421875	22164.68359375	24538.212890625	28065.27734375	16521.611328125	30578.435546875	26748.275390625	25809.41796875	28043.7578125	24157.953125	29863.58203125	20125.474609375	21806.482421875	24012.62890625	20954.662109375	27193.49609375	24665.962890625	25621.603515625	27978.5625	25843.2734375	21199.58984375	19520.724609375	23180.234375	27364.71875	23961.880859375	27630.09375	32809.75	23405.79296875	28954.70703125	23506.166015625	26392.87890625	28579.685546875	26606.205078125	25334.580078125	21343.666015625	22780.431640625	25953.998046875	25063.556640625	17907.34375	30379.76953125	25711.96875	26731.779296875
60	90	60038.8125	34552.08203125	37380.4296875	47552.18359375	50358.4921875	44689.296875	55420.02734375	39095.35546875	32959.31640625	38017.6796875	37365.23046875	24509.068359375	46050.4453125	38910.2734375	31079.76171875	34100.45703125	38093.828125	48171.24609375	50224.21875	41529.68359375	52820.9375	39503.78515625	38453.50390625	33897.25390625	42073.3984375	38211.26953125	33346.734375	9946.017578125	13760.7021484375	48370.80859375	37985.40234375	39493.734375	11138.3349609375	48867.3828125	43456.91015625	47427.0390625	57858.79296875	35347.61328125	43174.05078125	43693.78515625	40409.2265625	49008.00390625	45880.5625	47535.55078125	51068.02734375	45290.984375	41916.81640625	36802.5390625	41589.70703125	49256	46321.5703125	51215.61328125	64690.15625	44829.80859375	52440.5078125	45021.78125	49356.08984375	47265.9296875	50422.2109375	46973.421875	42263.33203125	41439.87890625	46433.01171875	52381.5	32144.2890625	57022.609375	45596.7578125	47122.59375	49941.921875	46573.84375	53356.99609375	34929.234375	41693.37890625	45943.72265625	40710.34375	49544.7421875	46718.4609375	45751.4453125	50046.16796875	47197.41015625	42787.97265625	36691.5703125	43000.1015625	50802.546875	47846.38671875	50982.44921875	62442.4375	44195.5703125	54224.2578125	45368.8984375	48338.84375	47993.10546875	49575.546875	47317.828125	40875.015625	42225.44140625	47804.8203125	46950.9609375	32370.53515625	56021.046875	42656.18359375	52409.015625
90	120	66454.2265625	38420.4140625	40216.96484375	52505.8125	53819.6875	48626.52734375	61806.67578125	44331.1953125	34860.33203125	39434.2421875	38039.015625	25402.220703125	49526.2109375	41316.32421875	33530.88671875	37906.6953125	41687.25390625	52486.09765625	54666.90625	46079.76953125	60288.546875	45332.8984375	40203.4296875	33888.5859375	45046.90625	39914.453125	31163.72265625	9590.693359375	13399.3955078125	51650.0078125	43760.828125	40322.1640625	12044.345703125	55430.98828125	47220.2734375	53109.80078125	62446.92578125	36682.53125	46483.33984375	48702.7421875	43150.28515625	50649.18359375	50955.8671875	51765.3828125	55525.34375	47913.2265625	45856.03125	38215.09765625	45250.99609375	53707.5703125	49739.75	53733.015625	68217.0390625	49972.6875	57991.91015625	50464.8125	53385.00390625	47216.88671875	55591.17578125	50941.69140625	46315.09375	44210.3671875	50282.94921875	59463.0859375	34533.01953125	60017.31640625	46435.2578125	53141.69140625	53658.93359375	50619.12109375	56235.0546875	37353.80078125	45130.97265625	51232.8828125	45302.97265625	55296.73046875	50716.58203125	50155.34375	55214.09375	48846.87109375	47057.2421875	37497.03125	47466.11328125	55258.8984375	54076.75	54878.07421875	66399.578125	48465.8203125	57725.54296875	49242.453125	53296.9453125	51475.484375	55024.53515625	51855.66796875	46509.859375	45939.640625	52738.88671875	52685.6015625	32514.01953125	60512.42578125	43923.45703125	58285.64453125
120	150	66093.7421875	38504.59765625	41344.21484375	52454.93359375	53635.18359375	46921.75390625	61364.8984375	43472.51953125	34164.6484375	39909.00390625	37849.0625	25027.859375	50333.421875	40884.61328125	30912.193359375	38488.7734375	42572.95703125	52732.8125	54368.5390625	47450.80078125	59719.16796875	47342.39453125	40759.79296875	34878.7578125	47301.3515625	42544.76171875	31235.56640625	9222.064453125	13012.7158203125	52608.45703125	42588.16015625	39128.35546875	12027.12109375	53448.91015625	48465.67578125	52441.5390625	63417.60546875	36978.8359375	47232.75	48679.7421875	43801.625	53174.34375	51935.81640625	52088.546875	56079.88671875	50272.40234375	47478.55078125	38873.1796875	46388.75	53122.58984375	50286.07421875	55009.9375	69121.9921875	50164.4921875	57029.2265625	50538.953125	53088.45703125	50381.0546875	55871.0703125	50775.7421875	46170.22265625	45569	49741.5625	58073.51953125	33441.13671875	60128.3046875	46337.7109375	54320.9453125	51964.5078125	51329.15625	55664.16015625	37854.26171875	46538.11328125	51064.94140625	46057.06640625	53407.42578125	50977.7109375	49492.42578125	54942.71484375	49661.15234375	47411.953125	38136.1015625	48036.015625	54273.328125	53144.84375	53117.25	65934.453125	48178.19921875	57828.8125	49866.31640625	53211.5390625	51389.79296875	54413.13671875	51860.94921875	45579.76171875	44996.08203125	52734.78125	53041.69921875	33364.14453125	58020.1484375	45756.9609375	58505.20703125
150	180	66521.7421875	38115.92578125	39958.8046875	51250.00390625	53976.8671875	48204.3046875	61615.109375	44873.4375	34907.171875	39146.9375	35171.45703125	24561.681640625	47802.09765625	41988.08203125	32944.12109375	37894.58203125	42566.05859375	51822.27734375	54396.8125	47459.5390625	59119.07421875	44234.21484375	39495.7421875	33453.5234375	46640.32421875	41640.07421875	32152.330078125	8720.595703125	12827.681640625	51624.44140625	42272.55078125	38263.03125	12113.279296875	54896.40234375	47932.94921875	50714.09765625	58932.99609375	34980.41796875	45132.5	48969.81640625	43316.7109375	48337.30078125	50347.33984375	50485.04296875	53192.38671875	50149.6015625	46404.69140625	36711.03125	45685.80078125	52151.55859375	51089.62109375	53363.3671875	65791.7265625	48142.90234375	55362.046875	49580	52416.1328125	49262.48828125	54401.39453125	49933.51953125	45355.12890625	44400.0078125	49214.77734375	52865.74609375	33314.9453125	57214.3046875	46480.17578125	53458.55859375	50596.09765625	51099.375	54401.8671875	35982.37109375	45823.56640625	49944.03125	44916.5625	52641.5390625	51038.015625	48586.9296875	52929.4375	47315.94140625	46537.8125	36914.87890625	47615.4609375	53030.453125	50949.5390625	52720.36328125	63552.83203125	46985.4609375	56267.60546875	48474.03515625	51474.97265625	48183.4609375	54045.91015625	49736.40234375	44894.015625	45344.76171875	51704.609375	51624.1640625	32256.16796875	56084.1875	43627.54296875	57334.48046875
180	240	64016.77734375	36707.66015625	39426.9375	49011.8828125	51762.99609375	47691.51171875	60581.25	44222.453125	33034.8671875	37824.72265625	36235.91015625	23976.78125	46517.359375	38782.89453125	29204.69140625	36567.73828125	40427.9921875	49128.578125	52155.67578125	44565.16015625	56410.6328125	43196.85546875	38021.234375	34704.546875	46899.70703125	39794.90234375	29941.46875	8351.5068359375	12342.4033203125	49391.68359375	40757.37109375	36074.9453125	11941.587890625	50856.5703125	44044.19921875	49047.27734375	55973.484375	33418.51171875	44135.6953125	46050.43359375	41339.8828125	45793.296875	47448.078125	47831.28125	50739.765625	46341.19140625	44653.88671875	36575.96484375	42945.04296875	50170.28125	48123.26953125	50171.83984375	61094.9921875	46459.1484375	51554.8984375	46678.9140625	50051.50390625	45976.125	51100.9140625	47429.953125	43094.97265625	42321.05078125	47277.59375	52254.5078125	31633.501953125	53786.921875	44114.8984375	49693.1953125	48959.29296875	47095.22265625	51405.6171875	34449.48828125	43474.23828125	47976.7578125	42999.91796875	48478.4375	47617.37109375	46666.54296875	50489.09375	46616.421875	44529.23828125	37008.59765625	44495.5546875	50806.9296875	47975.34375	49651.7890625	58566.51953125	44690.734375	52930.55859375	46521.953125	49517.5703125	46322.5390625	51020.50390625	47910.19140625	43301.96875	42457.28515625	48662.390625	47715.07421875	32198.89453125	53768.74609375	41592.68359375	54593.55859375
240	300	60498.30078125	35195.1640625	37542.84765625	45954.484375	50293.3046875	43527.73828125	55164.07421875	41175.02734375	31806.517578125	36799.26171875	34431.65234375	22764.3359375	45139.42578125	38428.2734375	27450.93359375	35150.3203125	39177.56640625	46625.26171875	50604.0625	43103.8203125	55077.2578125	43102.56640625	37326.5703125	34130.98828125	42265.40625	37882.86328125	28847.904296875	7913.076171875	12062.63671875	44843.92578125	37711.04296875	33528.0234375	11819.7958984375	46668.765625	42773.9375	45293.0625	51215.671875	33889.921875	41704	43328.7421875	39775.74609375	43075.36328125	44278.84375	44994.93359375	46003.12109375	44523.7109375	41890.7578125	33317.1875	39384.46875	46574.44921875	44057.5390625	47026.35546875	53419.41015625	43386.98046875	47615.10546875	43821.6953125	46691.1015625	44445.828125	48180.46484375	44395.84765625	41377.54296875	39862.14453125	44100.640625	50613.62890625	31337.5625	49325.3828125	41083.39453125	47559.42578125	45140.65234375	45066.0234375	48016.49609375	33761.99609375	41928.81640625	44733.23046875	40946.9375	44584.27734375	44731.98046875	43752.37890625	46926.6015625	43485.125	41798.3984375	34177.3046875	42930.59375	46604.25390625	44914.796875	45572.4609375	53581.91796875	42091.14453125	48573.9140625	42848.68359375	45665.421875	42689.6796875	47795.8359375	44575.98046875	40667.3984375	40228.95703125	45597.7421875	44459.59375	30918.9453125	49636.03125	39245.81640625	51465.685546875
300	360	56158.2109375	33573.47265625	36405.84375	43413.734375	47601.109375	40610.5859375	52205.90234375	41587.71875	30117.302734375	35388.69140625	33962.58203125	21697.20703125	43808.94921875	36455.859375	28187.771484375	33330.4609375	37147.10546875	43808.21484375	47732.25390625	40339.5703125	50163.90625	41813.91796875	35443.72265625	32604.60546875	40824.3515625	36716.0078125	28025.119140625	7513.349609375	11716.296875	43401.8984375	35822.265625	31168.185546875	11756.8447265625	44295.48828125	41912.8046875	41942.2734375	47826.37109375	32515.623046875	39887.234375	40849.70703125	37491.1875	38846.74609375	41220.078125	41961.46484375	43508.453125	41802.5078125	39697.40234375	32331.55078125	37119.2578125	43094.609375	41614.81640625	44343.9765625	48994.6953125	40314.76953125	44048.28515625	40886.59375	43041.515625	41482	44834.2421875	41286.09765625	38494.765625	37753.03515625	41105.44921875	44528.34765625	30565.767578125	45455.03125	39155.921875	44051.84375	42197.89453125	41521.1875	43692.8671875	31942.857421875	39265.28125	41778.2578125	38795.72265625	40970.83984375	41841.13671875	40295.33203125	42989.3671875	41362.875	39306.28125	33709.39453125	39642.54296875	43692.296875	41377.44921875	42562.953125	48603.19921875	39275.37890625	45340.80078125	40611.77734375	42937.71875	41537.7421875	44482.8984375	41777.0703125	37809.74609375	37757.4609375	42114.6484375	42526.16796875	30240.77734375	44604.13671875	37720.41796875	48440.40234375
360	480	51711.8359375	31492.220703125	34273.140625	39385.58984375	44647.05859375	36665.23046875	48786.625	39456.34765625	28619.279296875	33614.01953125	32616.2265625	20851.619140625	40141.57421875	34232.0625	25851.1640625	31387.705078125	34808.2578125	39743.22265625	45413.37890625	37475.2109375	45987.52734375	40467.84375	34301.16015625	32204.11328125	37884.11328125	34836.1796875	26265.32421875	7213.65380859375	11416.79296875	38467.6328125	33773.30859375	28216.072265625	11628.4951171875	41037.77734375	36573.59765625	38337.40625	42814.60546875	29841.552734375	36501.8359375	37153.76953125	34284.64453125	35452.640625	37259.97265625	38349.45703125	38632.6953125	38187.5625	36098.37890625	30555.974609375	34929.71484375	38643.12109375	36556.4765625	39200.17578125	44043.76171875	36627.3828125	39661.9453125	37098.015625	38629.890625	37696.203125	40548.22265625	37703.078125	35017.078125	34739.1015625	37565.22265625	40171.28125	28440.984375	39064.37109375	35993.8984375	39755.796875	37697.4140625	37094.71875	39947.6015625	30664.27734375	36417.5234375	38153.93359375	35389.62890625	36526.34765625	37623.58984375	37335.7734375	39099.69921875	38085.2265625	35986.5390625	30391.984375	35475.8984375	38577.17578125	37037.359375	37767.2578125	42662.2890625	35447.375	40320.98828125	36407.96484375	38281.23828125	37845.515625	39836.9453125	37582.93359375	34574.828125	34633.37109375	38007.0625	39505.87890625	28444.826171875	41551.45703125	34424.25	43768.546875
480	600	45746.38671875	29636.658203125	32239.828125	34859.26953125	40493.109375	32776.7265625	43473.45703125	37405.59765625	27417.1015625	31211.76171875	31406.974609375	19278.77734375	35551.125	32863.546875	22252.103515625	29496.568359375	32302.798828125	35429.7890625	41511.28515625	32730.767578125	42093.03125	37380.3984375	32609.83984375	30709.900390625	36954.8046875	33899.3828125	23448.54296875	6967.052734375	10910.0869140625	34962.5546875	31998.77734375	25232.85546875	11743	36169.81640625	33731.28125	33421.65625	37460.0859375	29099.58984375	33289.49609375	32183.6796875	31958.314453125	32000.583984375	32650.37109375	34776.61328125	34555.015625	33818.34765625	32647.388671875	29341.5546875	30866.919921875	34573.5234375	34354.1328125	34679.53515625	37864.23046875	32164.84375	35676.76953125	33237.66015625	34212.33984375	34722.3984375	36175.7265625	33433.92578125	30825.697265625	31320.8359375	32750.544921875	36208.19140625	27858.92578125	34881.1171875	33122.0859375	34772.30859375	34275.8046875	32983.81640625	34747.11328125	28977.94921875	33421.4140625	33592.7578125	32190.18359375	33594.38671875	33122.64453125	32819.20703125	34270.96484375	33817.0390625	32843.65234375	28372.775390625	31235.412109375	34376.49609375	33858.6953125	33388.48828125	36730.87109375	31834.392578125	36091.9140625	32509.958984375	33946.51171875	34155.90625	35286.796875	33754.703125	30468.146484375	31504.275390625	34002.1640625	34200.078125	26964.70703125	34968.421875	32241.783203125	38639.50390625
600	900	39688.85546875	27377.974609375	29885.330078125	30700.373046875	36826.47265625	28906.083984375	37911.7734375	34764.4765625	25122.140625	30282.5390625	29513.6328125	17527.732421875	33246.09765625	31442.2265625	20880.197265625	27080.25	30259.296875	30989.716796875	37472.40234375	28380.75390625	36476.1328125	34231.05859375	30142.65234375	29066.87890625	30255.841796875	31802.283203125	21455.11328125	6663.0341796875	10374.0390625	29820.244140625	29675.451171875	21786.3203125	11956.98046875	32023.658203125	30435.533203125	29295.62109375	31999.08203125	27196.357421875	29493.712890625	27544.544921875	28111.68359375	28069.42578125	28444.3515625	30297.865234375	30547.123046875	29662.4765625	28544.1484375	26009.771484375	27118.19921875	29680.982421875	29180.6875	30168.4765625	32540.53125	27956.93359375	31194.498046875	29037.982421875	29886.578125	30194.87109375	31020.810546875	29370.40625	26571.84375	27399.5	27971.66015625	31514.21484375	26382.361328125	31408.009765625	29500.7734375	30817.607421875	30606.171875	28242.189453125	29503.47265625	27278.830078125	29972.826171875	29156.98046875	29353.06640625	28975.9765625	29492.375	28954.0390625	29923.138671875	29484.078125	29500.1328125	26733.9765625	27640.20703125	29850.287109375	29616.48046875	29479.328125	31890.986328125	27690.15625	31349.255859375	28633.44140625	29483.1328125	30033.7578125	30531.064453125	28803.46484375	26910.744140625	27862.609375	29446.279296875	30604.482421875	25366.2421875	31486.537109375	28710.79296875	33676.640625
900	1200	31986.462890625	24526.427734375	26844.806640625	25216.658203125	31366.28125	23415.56640625	31412.40234375	31372.3515625	22659.373046875	26933.466796875	25752.470703125	15813.0693359375	28592.4765625	28264.666015625	19282.091796875	24312.12890625	27024.736328125	25486.943359375	31761.744140625	23746.025390625	30202.76953125	30755.234375	27273.125	26157.001953125	26245.46484375	28210.146484375	19513.142578125	6380.1484375	10154.9912109375	24046.783203125	26925.748046875	17989.921875	12090.00390625	25738.73046875	25755.96875	24282.73046875	26670.673828125	22542.53125	24851.251953125	22715.703125	23696.33203125	23699.966796875	23881.076171875	25275.703125	25460.22265625	24481.455078125	24049.185546875	21922.333984375	22797.72265625	24498.5703125	23469.4140625	25296.515625	26537.69921875	23080.703125	25417.140625	23907.83203125	24562.59765625	25197.974609375	25766.8828125	23936.5078125	22060.390625	22890.546875	23198.025390625	25346.73046875	22755.0625	25092.21875	25442.51171875	26065.828125	25645.232421875	23079.79296875	24186.259765625	24824.8359375	25531.107421875	23840.021484375	24484.126953125	24379.494140625	24718.40625	23911.62109375	25148.5390625	24376.23828125	24074.94921875	22703.447265625	23085.369140625	24158.873046875	23432.419921875	23630.302734375	26157.958984375	22671.08984375	26088.396484375	23638.646484375	24345.76953125	25008.755859375	24783.001953125	23858.759765625	21930.3203125	22889.501953125	23869.533203125	25286.583984375	22177.970703125	25470.052734375	24504.427734375	27307.5537109375
1200	1500	26542.119140625	22006.68359375	23718.890625	20684.958984375	27021.49609375	18790.41796875	26851.9609375	27337.216796875	19668.3515625	24053.009765625	22957.65625	14575.861328125	24240.07421875	25049.724609375	16610.63671875	21957.02734375	24051.66796875	20997.400390625	27300.423828125	21096.05078125	25913.02734375	27541.2578125	24464.3984375	23279.224609375	23075.76171875	25071.896484375	17467.490234375	6063.90673828125	9972.9384765625	19743.89453125	24026.287109375	15306.2734375	11993.9326171875	22292.80078125	21794.642578125	20254.001953125	22351.603515625	20082.4375	21156.88671875	19287.607421875	20744.783203125	19998.509765625	20120.4140625	21304.279296875	21416.0078125	20444.951171875	20577.50390625	18906.998046875	18535.630859375	20754.62109375	20255.3125	21261.26953125	22735.46484375	19889.08203125	21061.197265625	20589.57421875	20718.921875	21031.060546875	21677.583984375	19811.0859375	18487.724609375	19495.267578125	19865.42578125	19935.939453125	19403.513671875	21439.6328125	21660.892578125	22108.49609375	21648.1875	19006.47265625	20446.205078125	21726.1328125	21459.814453125	19717.626953125	20218.19921875	20346.66015625	20678.73828125	20488.306640625	20966.85546875	20848.931640625	19806.59375	19759.80859375	19861.734375	20016.654296875	20187.1875	18809.12890625	21477.767578125	18602.734375	21293.955078125	19581.939453125	20259.64453125	21454.744140625	20333.392578125	20103.25	18261.220703125	19289.744140625	19719.947265625	21309.6875	19549.8984375	22660.85546875	20787.416015625	22113.4658203125
1500	1800	21701.07421875	19965.48828125	21511.404296875	17562.544921875	22510.6015625	15794.921875	22901.560546875	25462.671875	17587.79296875	21918.71484375	19755.29296875	13035.8740234375	19000.02734375	22368.216796875	14698.662109375	19980.25390625	21893.544921875	17729.388671875	23042.146484375	18395.294921875	21595.49609375	24877.9453125	21955.974609375	20767.0625	21031.767578125	22665.271484375	14812.82421875	5624.89306640625	9702.01171875	16080.951171875	21647.529296875	12977.1474609375	12053.44140625	18767.494140625	18566.97265625	17790.724609375	19154.185546875	17895.880859375	18570.587890625	16350.8984375	18424.318359375	17381.30859375	17553.658203125	18809.1484375	18782.107421875	16928.701171875	18231.80859375	16985.5703125	16451.693359375	17870.25390625	17493.03125	18647.97265625	19424.431640625	17027.79296875	17883.6328125	17856.47265625	17681.78515625	17898.814453125	19105.64453125	16824.763671875	15594.6728515625	17104.63671875	17071.529296875	16699.3125	17303.115234375	17978.125	19181.716796875	18980.791015625	18942.09765625	16110.7958984375	17612.400390625	18932.83203125	18695.53125	16536.697265625	17705.4921875	17161.138671875	17813.0390625	17507.6484375	18318.958984375	18189.16015625	16682.49609375	17220.990234375	17876.619140625	17108.91015625	16832.494140625	15637.486328125	18665.810546875	15583.078125	18569.46484375	16740.35546875	17448.615234375	18881.380859375	17420.640625	17500.513671875	15576.0634765625	16434.966796875	16747.294921875	19185.44140625	17661.904296875	19209.20703125	18048.345703125	18484.8779296875
1800	2100	18238.17578125	18265.328125	19252.58203125	15067.658203125	19354.359375	12983.7734375	19874.53125	22569.6171875	15193.4248046875	19469.490234375	17832.794921875	12110.4287109375	15925.0400390625	20064.8515625	14094.7861328125	18223.134765625	19326.53515625	15231.880859375	19820.845703125	16594.599609375	18995.986328125	21672.203125	19991.498046875	18417.861328125	17442.595703125	20235.796875	13774.5205078125	5403.234375	9483.5322265625	13777.9072265625	19131.904296875	11389.8212890625	12025.45703125	16731.42578125	15866.4091796875	15429.619140625	16788.7109375	16068.0830078125	16302.7099609375	14325.4736328125	16452.908203125	15488.537109375	15500.423828125	16768.099609375	16383.3720703125	14802.294921875	16028.9462890625	15172.9697265625	14379.9658203125	15967.728515625	15896.8134765625	16683.419921875	17109.79296875	15066.7568359375	15722.2119140625	15658.197265625	15517.529296875	15275.5361328125	16808.25	14546.49609375	13647.259765625	14909.6435546875	15070.091796875	13817.41796875	15547.181640625	15926.25	17042.162109375	16824.478515625	17286.701171875	14313.0693359375	14984.51171875	17033.0546875	16489.35546875	14242.1396484375	15398.0048828125	15686.236328125	15569.4326171875	15135.4384765625	16117.857421875	16015.7783203125	14436.8603515625	14887.5419921875	15536.50390625	14712.94921875	14756.74609375	13439.171875	16436.751953125	13415.9248046875	16095.73828125	14643.333984375	15498.2060546875	16890.279296875	14940.123046875	15310.0029296875	13422.4384765625	13861.9345703125	14295.3876953125	16885.73828125	15222.1943359375	17051.572265625	15576.7421875	15696.83056640625
2100	2400	15900.58203125	16804.55859375	17798.416015625	13241.6455078125	17171.87109375	12287.673828125	17574.212890625	20629.09765625	14016.2275390625	17716.056640625	15829.7705078125	11097.47265625	15640.775390625	17914.25390625	12895.7119140625	16671.1875	18009.310546875	13368.7900390625	17367.94140625	14722.0048828125	16454.51171875	19481.728515625	18461.513671875	15768.322265625	16003.6455078125	17678.716796875	12887.8583984375	5370.67431640625	9254.41015625	12476.6982421875	17893.615234375	10228.4912109375	12078.2080078125	14411.75	15185.9404296875	13662.5791015625	14693.1845703125	14111.3447265625	14518.921875	12410.828125	14220.9501953125	13271.5771484375	13835.552734375	14394.029296875	14829.888671875	13007.265625	13981.095703125	12944.9736328125	12724.6689453125	14161.5224609375	13126.56640625	14378.6669921875	15399.0595703125	13081.357421875	13385.4013671875	13880.583984375	13904.3125	13603.103515625	14943.455078125	13267.369140625	12173.5478515625	13190.150390625	12942.857421875	12760.3935546875	14122.0380859375	14023.5888671875	15020.1005859375	14842.37109375	15199.2841796875	12349.0146484375	13307.80859375	15081.50390625	14483.923828125	12895.2001953125	13803.9384765625	13285.5029296875	14210.0390625	13028.341796875	14573.8291015625	14087.142578125	12833.724609375	13396.1982421875	13688.16015625	12798.037109375	13189.369140625	12230.8564453125	14876.912109375	11953.4130859375	14655.87109375	12869.2919921875	13714.3671875	14718.8427734375	13390.3359375	13654.486328125	11945.1318359375	12541.072265625	12954.2685546875	13672.169921875	13995.7373046875	14301.658203125	13888.2421875	13584.705078125
2400	2700	13934.80078125	15581.6904296875	16105.3251953125	11879.611328125	15299.900390625	11169.3701171875	15686.1982421875	18133.99609375	12512.943359375	16362.2666015625	14559.916015625	10285.8076171875	13201.1103515625	16336.7744140625	11596.392578125	15491.2626953125	16188.8623046875	11938.3720703125	15798.130859375	12828.3310546875	14793.384765625	17891.685546875	16454.810546875	14240.6435546875	13806.8037109375	16372.1796875	11974.4267578125	5170.46337890625	8995.455078125	11049.8896484375	15912.4931640625	9395.07421875	12021.0732421875	13070.2275390625	13666.8486328125	12638.5517578125	13269.10546875	12318.912109375	12881.830078125	11373.365234375	13039.5693359375	12425.111328125	12489.8837890625	13003.4228515625	13272.205078125	11752.8759765625	12458.98046875	11868.818359375	11889.826171875	12872.044921875	12153.080078125	13165.8994140625	14092.2392578125	11853.0869140625	12572.080078125	12467.197265625	12781.9931640625	12258.99609375	13458.142578125	11903.6767578125	11118.0029296875	11597.9912109375	11739.3974609375	11549.40625	12344.5458984375	11860.6650390625	13326.5029296875	12778.7236328125	13549.0517578125	11328.94140625	11921.8857421875	13060.6298828125	13291.7080078125	11709.8603515625	12472.5185546875	12612.9365234375	13138.1171875	12020.9169921875	13194.9033203125	13215.1416015625	11831.4423828125	12166.1181640625	12889.19921875	11525.6904296875	11391.90234375	11262.5048828125	13113.8583984375	10790.171875	13020.1865234375	11794.431640625	12166.3681640625	13568.1591796875	12187.8349609375	12175.2978515625	10930.3359375	11354.576171875	11975.0302734375	12778.4287109375	11848.4306640625	13024.4970703125	12719.2841796875	12081.1953125
