time	plasma_radioactivity	metabolite_parent_fraction	whole_blood_radioactivity
673.2	8299.026101545187	0.8977552498189718	19218.32233661179
1749.0	2884.807581958079	0.8032200357781754	7171.46685400573
3640.2000000000003	3018.8473857993154	0.7508710801393729	6287.52241983397
5371.8	2465.131992267665	0.8247422680412371	4314.349961389852
