time	plasma_radioactivity	metabolite_parent_fraction	whole_blood_radioactivity
184.8	62736.265668729415	0.9931309904153355	72143.06142236695
304.20000000000005	18594.685723847753	0.9774231571311995	34546.296432354764
604.8	9352.892587647128	0.9218723404255319	24611.21498759563
900.0	8150.643999568103	0.8602613815883958	21220.081887320255
1810.2	6475.052818820758	0.7807831014940753	13954.507074665657
2734.2	4883.210865747283	0.7540616246498599	10329.995797521777
3700.2000000000003	4060.7976097197516	0.6769825918762089	8769.403814956573
