time	plasma_radioactivity	metabolite_parent_fraction	whole_blood_radioactivity
720.0	5657.3192588759985	0.9445166883398354	21177.617978421047
2020.2	3928.4748699275024	0.8060686015831134	11321.268087202589
