time	plasma_radioactivity	whole_blood_radioactivity
178.20000000000002	21861.59753807586	29878.699862352983
297.0	13242.364149297684	21343.771396088196
603.0	8599.348601986518	17384.480273956233
898.2	7229.434695414264	12909.088549186297
1798.1999999999998	5294.365567548587	10490.481156401094
2674.2	4449.837308686445	8136.36996075683
3598.7999999999997	4200.964764840122	7295.126028393612
5389.2	3719.0467435309556	5666.137128866135
7245.0	3374.846835965226	4588.365251050298
