time	whole_blood_radioactivity
0.0	508.9346301741688
1.0710000000000002	554.50972156483
2.133	498.2268643623071
3.204	475.8689297550454
4.266	646.2109237581989
5.338	567.1961640479961
6.399	533.4850732569988
7.471	692.8162903089323
8.532	636.4106176149704
9.604	534.45493151732
10.665	705.4497017105841
11.737000000000002	592.0270488960336
12.798000000000002	672.127014814026
13.86	626.9362894694941
14.931	536.0708259598272
15.993	718.9956191000274
17.064	593.8170093991748
18.126	754.144564706776
19.197	731.7356913843649
20.259	674.9749517115623
21.331	766.9627803180667
22.392000000000003	733.0618083555734
23.464	699.1241367464637
24.525	791.2881931978238
25.587	745.8651775196729
26.658	734.8362021937904
27.72	723.7898681522723
28.791	862.1777450096902
29.853	908.7072987013576
30.924000000000007	1047.3742981338164
31.986	967.3890920466138
33.047000000000004	944.9240143315093
34.119	980.0896451807688
35.19	1038.372026000483
36.252	1119.808048000669
37.324	1108.9371284517954
38.385000000000005	1121.1624901139637
39.447	1353.1441581646982
40.518	1377.110411190807
41.59	1227.415226926567
42.651	1459.8805429999538
43.713	1692.626013196879
44.784	2436.0771886769176
45.846	2483.973187542734
46.917	3612.0779536544405
47.979000000000006	3579.388363452025
49.05	4674.63550723321
50.112	5096.325881633054
51.173	6368.417698329256
52.245000000000005	7071.259033294608
53.31699999999999	8287.84265507429
54.378	9202.589157716333
55.45	9756.704440980935
56.511	11058.799508930373
57.573	11229.043731980724
58.644	12065.982133431951
59.706	12962.361258438259
60.777	14117.417662469285
61.839000000000006	14992.68116237443
62.91	15740.152776503235
63.972	16335.988804675264
65.04299999999999	16604.061970933682
66.105	17295.058390067472
67.176	18139.70319597503
68.238	17539.33341520119
69.31	19702.57155095165
70.371	19455.48624230748
71.43299999999999	21033.525404071497
72.504	20810.61477726642
73.566	20728.814332802438
74.637	23419.612071337873
75.699	22430.25272453728
76.77	23471.563936316034
77.83200000000001	24336.711152094875
78.903	24540.716424840713
79.96499999999999	25170.857205631106
81.026	25647.799039385227
82.098	26765.275743782844
83.169	25916.075932555534
84.231	26453.633305002426
85.303	27644.821865110745
86.364	27649.572259100423
87.426	28058.393925910346
88.497	28182.45110552485
89.569	28568.43285404297
90.63	29335.67561855794
91.702	28865.072095862917
92.763	29669.16083701534
93.835	29138.53241817264
94.896	30874.630591388974
95.968	30224.65328698331
97.029	30589.35232689178
98.101	30380.77320191637
99.162	30973.290218307397
100.234	30513.285185736768
101.296	30028.583520476328
102.367	28776.38714935142
103.429	29189.460057407043
104.5	29003.187693213506
105.562	28396.29032490745
106.623	26947.6482690309
107.695	25533.476508048956
108.766	25512.892629279173
109.828	26731.847281327227
110.89900000000002	25326.97260111623
111.961	23631.047954684873
113.022	23621.14565953565
114.094	23321.808068484068
115.155	22780.507601174937
116.227	22359.48295843061
117.289	22977.29154512514
118.36	21939.038774543973
119.422	21722.316934407423
120.493	20694.13847046765
121.55499999999998	21385.104545456776
122.626	20949.516355843254
123.68800000000002	19676.25729468069
124.74900000000002	19311.808960171875
125.821	19469.291182068155
126.882	18715.372384529277
127.954	18799.707088805862
129.015	17874.113970971666
130.087	17958.025690349856
131.148	17176.980187309182
132.21	17882.127862441677
133.282	16441.552192009403
134.34300000000002	16805.3668530954
135.415	14764.005528191234
136.476	16092.547774268298
137.538	14207.136076671766
138.60899999999998	14962.028037042288
139.67100000000002	14665.004656719564
140.742	15102.611781522884
141.804	14486.645701844203
142.875	14237.907824889284
143.93699999999998	14037.874702465404
145.00799999999998	13567.543114837594
146.07000000000002	14177.711056515855
147.13100000000003	13817.445408743595
148.203	13210.81371751632
149.275	13354.230458525983
150.33599999999998	13140.584455668366
151.40800000000002	13099.278272840784
152.469	12687.925274857651
153.53099999999998	13324.789990623427
154.602	12246.497118761567
155.66400000000002	12167.401047251391
156.735	12273.66982307412
157.797	11514.265742928379
158.858	11880.068217016107
159.92999999999998	12531.182503773995
160.991	11857.267405933797
162.06300000000002	12509.14664702247
163.12400000000002	11598.698579031745
164.186	11469.143925100407
165.257	11637.567618970981
166.329	11172.39185312718
167.391	11154.247859239857
168.45200000000003	11360.03734555754
169.524	11615.942845956848
170.585	11548.183887632327
171.64700000000002	11044.067656400244
172.718	11337.643968203496
173.78	10920.143984221093
174.851	10726.970111178625
175.91299999999998	10758.418596931808
176.984	10052.288180161562
178.04600000000002	11109.211307084593
179.117	10490.057661819666
180.179	10721.832085503358
181.24	10753.346955575007
182.312	10734.800469624375
183.374	11117.709288543847
184.445	11061.680115904226
185.507	10766.818418746252
186.568	10936.716469769724
187.63	11345.812919920749
188.701	11038.047766972779
189.763	11019.505570362362
190.834	10862.378122665968
191.896	10616.738545973558
192.957	11253.950977803688
194.029	10945.18491767377
195.1	11280.258699630725
196.162	11249.13134250915
197.223	10357.954919294833
198.295	10629.99944879479
199.367	10687.109120161827
200.42800000000005	10554.166285542799
201.49	10776.041039471631
202.561	11048.976784107997
204.574	10744.091782027945
205.636	10521.824735821401
206.707	11074.967914103918
207.769	10928.960730718869
213.817	10749.452129385965
214.879	10027.791033295467
215.95	10736.889897230722
217.012	10027.130246570901
218.083	10353.154861710593
219.145	9911.206602659477
220.206	10557.811751004869
221.278	10371.917776420532
222.34	10839.983784723509
223.411	10384.46292847324
224.473	10570.529287956098
225.544	10538.391926455544
226.606	10416.1420170554
227.677	9894.909092456424
228.739	10209.865855712324
229.81	9391.565075269036
230.872	9551.905820612395
231.943	8719.30992516644
233.005	9266.617631238403
234.066	9427.158149030525
235.138	8967.703575094274
236.199	9503.208260635618
237.271	9457.23380383169
238.333	9449.982168781868
239.404	10466.056737396124
240.466	9500.294727432765
241.527	10634.279978728844
242.599	9849.175019327313
243.66	10322.534463887554
244.732	9523.290420610969
245.793	10049.019335026684
246.865	9469.769506169701
247.926	10230.378667765357
248.988	10197.466916318554
250.059	9630.27250519946
251.131	10262.016569765321
252.192	9746.298645604082
253.26400000000004	10300.539158364758
254.326	9666.651325881341
255.387	10430.57762432368
256.459	10096.86639599207
257.52	9160.696251980793
258.592	10253.120144144583
259.653	10088.954033974342
260.725	10422.84760846161
261.78599999999994	9917.499533941856
262.858	10396.075288642185
263.919	9193.976901129414
264.98100000000005	9580.634596645117
266.052	10243.95827836773
267.11400000000003	10421.180181942018
268.185	9927.197547183345
269.247	9920.000054977023
270.309	9477.787532762928
271.38	9918.8086935341
272.442	10399.902574477164
273.503	10260.89411554341
274.575	9487.514937626705
275.636	10418.74430513613
276.708	9909.113917342946
277.769	10166.591118270466
278.841	10623.126346804574
279.90200000000004	10165.63416113036
280.974	9707.648318335634
282.035	9421.551711673184
283.09700000000004	9865.39051484067
284.168	9765.093400923259
285.23	10036.849084834386
286.302	9111.814194422279
287.363	9516.592194899376
288.435	9269.33329632492
289.496	9421.494661211367
290.568	9080.533096483661
291.629	9472.916655817015
292.691	9184.915936120527
293.762	10165.646405203142
294.824	9089.094845516922
295.895	9107.987577863321
296.957	9046.558452294914
298.028	8985.097888829696
299.09000000000003	9606.845988727744
300.151	9398.11650620194
301.223	9296.508750044528
302.285	9422.912100000238
303.356	10006.1704266378
304.418	9568.701272440569
306.24999999999994	10305.110789786795
307.312	10620.92345229213
308.383	9671.043013292767
309.44500000000005	9380.359657661947
310.50600000000003	9750.113735072502
311.57800000000003	9621.100595171447
312.639	9599.883446789807
313.711	10024.531987738921
314.772	9151.873388732012
315.844	9752.600636818424
316.906	9474.244662865598
317.977	9994.625199589918
319.039	10136.152329646426
320.11	10671.116425089058
321.172	9863.496997137103
322.233	9747.249524981395
323.305	10364.444226414369
324.37600000000003	10248.408354334793
325.438	9588.166630380858
326.499	10111.053388325503
327.571	10757.182143305063
328.642	10191.465154154204
329.70399999999995	10088.535481592795
330.775	9521.72038259218
331.837	10947.015912184112
332.909	10735.141377684824
333.97	9907.962694141712
335.042	10132.775142637913
336.103	10754.590467806174
337.165	10090.209861379926
338.23600000000005	10000.44133099385
339.298	10006.461904657606
340.369	9532.484018884148
341.431	9538.222867834385
342.502	10628.872978396566
343.564	9907.016835553803
344.625	10572.923988383858
345.697	9740.155021340472
346.758	10227.807817759542
347.83	9269.848803533981
348.892	9744.024789544332
349.963	9915.427692449577
351.025	9659.218302780728
352.09599999999995	9955.035227901883
353.1580000000001	9974.844039154646
354.229	9856.484456790884
355.29100000000005	10415.709716801064
356.362	9370.141628985895
357.42400000000004	9957.441347246646
358.485	9603.139441333735
359.557	10565.71308088494
360.618	10280.711770202442
361.69	10439.667271636068
362.751	9334.675464368016
363.823	9840.723953582758
364.885	10277.786931147957
365.956	10311.859206695593
367.018	10178.82209126411
368.08900000000006	10185.002003302252
369.151	9800.775626247289
370.2120000000001	9834.569926587856
371.284	10943.245934677676
372.355	10907.989865539674
373.417	10215.80157376713
374.488	10459.724959115623
375.55	10535.982076013392
376.621	10360.37229186679
377.683	9974.359463781442
378.754	10022.467550947687
379.816	10266.94127814589
380.888	9781.976526068118
381.949	9507.003214488193
383.021	10243.452114693046
384.0820000000001	9898.117528854977
385.144	10255.78376252803
386.215	10585.777532618353
387.277	9085.02269996384
388.348	9907.982303562148
389.41	10717.780771939399
390.481	10244.517129614404
391.543	10984.893461932783
392.614	10059.116568759797
393.676	10065.172466723705
394.737	10113.66124531202
395.809	10233.035944488094
396.871	10225.034449696612
397.942	10387.120073423404
399.004	10450.09034786381
400.075	10953.009207815023
401.13700000000006	9809.696697362226
402.198	10710.50657479686
403.27	10688.588267740328
404.331	10111.911082387554
405.403	9961.517965042922
406.464	10935.781804162245
407.526	9802.535743930135
408.597	10008.078508914296
409.65899999999993	10042.633890310015
410.73	9534.875549295044
411.792	10183.321994773101
412.854	10618.181391996994
413.915	10767.563372632121
414.987	10573.79143619344
416.058	10451.358779158661
417.12	10400.348622744503
418.191	10248.98631854554
419.253	10312.528028975286
420.314	10433.542664496157
421.386	10468.60359136204
422.457	10647.386755568414
423.519	9863.029165812346
424.58	10444.411065741779
425.652	10738.657822053032
426.723	10644.3515660182
427.785	10074.263999510471
428.847	10700.435093543754
429.918	10447.194807254393
430.98	10698.939083065858
432.051	10113.096279594165
433.11300000000006	10292.656412292226
434.174	10081.876979130093
435.246	10131.42413863636
436.307	10687.840219016296
437.379	10766.790079800398
438.45	10599.329761977448
439.512	10083.40501370696
440.573	10191.090375523287
441.645	10197.283514993367
442.706	9970.860302779534
443.778	9918.74514977866
444.84	10026.58313187633
445.911	10848.098124445682
446.973	10169.840337578251
448.034	9709.437603323835
449.106	9773.68842037885
450.177	10261.30525431905
451.239	10880.90290568043
452.31	10697.525695229948
453.372	10499.24527518714
454.433	10286.084699097422
455.505	10790.115665281022
456.576	10283.934916771368
457.638	10641.925347340539
458.69900000000007	9988.305868042236
459.771	10977.669720658563
460.833	9926.968374805003
461.904	10226.870980706854
462.966	10144.812114475886
464.037	10298.086905106336
465.099	10598.694861160047
466.17	10619.859039153902
467.232	9255.598590028269
468.293	10455.678881161431
469.365	10712.885502249977
470.426	10453.56042897426
471.498	10386.043629254671
472.559	9475.758440298821
473.621	10206.255172707655
474.692	10316.056323183244
475.754	10129.742559893695
476.825	9409.783403554356
477.887	9637.860549481871
478.959	9851.428328690392
480.02	9263.537123373937
481.082	10249.501121838368
482.153	10671.89825057677
483.225	10366.063166600545
484.286	10476.467397896797
485.358	9291.602829397181
486.419	10816.924599852035
487.481	9600.954888020911
488.5520000000001	10113.974414418608
489.6139999999999	9940.947173211955
490.685	10096.336757270394
491.747	9474.75022174584
492.8080000000001	9944.004014849485
493.8799999999999	10219.371580042778
494.942	10539.925132279677
496.013	10051.965331624671
497.0750000000001	9788.204249751569
498.1460000000001	10709.067321699538
499.208	9499.888914357145
500.279	9896.094335559133
501.341	10187.543727499326
502.412	9577.293999160245
503.4740000000001	10906.936221658552
504.545	10612.494522367098
505.607	9835.646768508672
506.678	10504.759531309039
507.74	9983.26746439062
508.811	9446.10231716826
509.8730000000001	9617.874913715967
510.9450000000001	9563.288188432989
512.006	10340.005480447546
513.0780000000001	9983.261427554542
514.139	10049.807003379121
515.201	10071.001660096606
516.2719999999999	9667.97004300205
517.3340000000001	9749.603863560189
518.405	9694.835635475627
519.467	10034.654680423198
520.528	9949.549252201065
521.6	10016.393137225488
522.6709999999999	9946.431379712396
523.733	9998.07273789518
524.794	9851.817019548738
525.8660000000001	10284.41682835249
526.938	10229.684953946275
527.999	9839.218094426402
529.071	9585.71157767067
530.1320000000001	9576.203983025765
531.1940000000001	10330.799277915183
532.265	8884.376506745559
533.327	9930.174937321775
534.398	9446.283202415641
535.46	9360.054724806814
536.531	10653.334839425452
537.5930000000001	9908.197863175672
538.654	9822.07532873654
539.726	9444.136240024458
540.787	9972.245427744741
541.859	9763.057072457768
542.921	9768.93473348719
543.992	10298.24442951364
545.054	10181.222235526357
546.125	10079.51884647876
547.187	9854.266223865068
548.248	10245.95976512926
549.3199999999999	9094.183283952349
550.3810000000001	10907.224265633635
551.453	10001.788431466446
552.514	9791.251968332836
553.586	9967.453663184722
554.647	9539.820519725656
555.7090000000001	10258.381860364732
556.7800000000001	9489.337411527235
557.842	9681.227741457555
558.914	9857.87741716691
559.975	9180.33021204637
561.0469999999999	9543.397959850456
562.108	9440.271573934526
563.18	8699.042368776614
564.241	10199.10521541657
565.303	9192.511115428426
566.3739999999999	9962.00155679706
567.436	9780.806519264701
568.507	9677.482878924906
569.569	10151.856232379618
570.64	9345.378190718275
571.702	9476.101444976244
572.773	9732.20071018154
573.8349999999999	9831.996062846963
574.897	10527.195911985013
575.968	10314.137597600222
577.0300000000001	10257.609354186297
578.101	9432.058253066101
579.163	10018.762026600309
580.2339999999999	9663.447535768026
581.296	9166.148989241969
582.357	9753.740135884223
583.429	9980.047085661725
584.49	10694.838740264126
585.562	9787.232552510028
586.6229999999999	9193.862325460717
587.695	9530.818982240364
588.756	8131.331098528897
589.8280000000001	8357.452743318025
590.89	8441.524680516322
591.961	8905.363012160771
593.023	8942.378753015355
594.094	9359.56551315706
595.156	8984.887558934228
596.227	8689.078907611369
597.289	8583.251296321729
598.3499999999999	8763.039599897234
599.422	8641.287158637459
600.4830000000001	8376.281936440539
601.5550000000001	8174.621097113831
602.6160000000001	8434.153799057178
603.678	8152.616012693661
604.749	7998.238289552868
605.811	9166.844120142092
606.883	8869.326333941955
607.944	9066.200356298987
609.0160000000001	9375.164983211205
610.077	9540.613069168317
611.139	9562.347359481057
612.21	9584.153244397383
613.2719999999999	9445.834203488235
614.3430000000001	9483.608310703177
615.405	9264.90819394213
616.476	9126.182373945034
617.538	8923.044286355815
618.609	8478.827007086506
619.6709999999999	9351.606336823059
620.732	9276.84240658892
621.804	8848.11780932277
622.865	9787.07508340986
626.9509999999999	9503.209074404247
628.013	9218.334805929788
629.084	9918.553390436628
630.1460000000001	9488.104199311838
631.2070000000001	9930.493906785401
632.279	9483.397080319866
633.351	10088.305077987618
634.412	8781.942331655622
635.474	9257.3947384262
636.5450000000001	10431.031150018933
637.607	9495.842779049026
638.668	9274.166562682825
639.74	9426.069075406958
640.801	8976.413206608124
641.873	10430.031714957964
642.9340000000001	9329.177481274397
644.006	10410.064795172093
645.067	9356.762386787987
646.129	9688.611315099284
647.2	9155.910625395896
648.272	9749.376803530986
