time	plasma_radioactivity	metabolite_parent_fraction	whole_blood_radioactivity
198.0	44575.81669564098	0.9905822377247115	38802.547350849585
306.0	24305.765678872813	0.9644067796610171	30847.291235331595
610.8	18402.14929828182	0.9020698731754009	25533.93214560626
925.8	16423.117818786883	0.8434421980300674	22261.951983453462
1804.8	12937.553678416734	0.7439198855507868	15600.166286560505
2731.2000000000003	9264.030789180206	0.7438231469440832	12322.229638782443
3598.7999999999997	7442.650527767096	0.7104919460165433	10859.41242081137
5413.2	5428.010568512362	0.7646076794657763	8148.7766813432045
7249.8	5143.990551380662	0.8636363636363636	6713.502774639325
