frame_start	frame_end	highbinding	left_cerebral_white_matter	left_cerebellum_white_matter	left_cerebellum_cortex	left_thalamus	left_caudate	left_putamen	left_pallidum	brain_stem	left_hippocampus	left_amygdala	csf	left_accumbens_area	left_ventraldc	left_choroid_plexus	right_cerebral_white_matter	right_cerebellum_white_matter	right_cerebellum_cortex	right_thalamus	right_caudate	right_putamen	right_pallidum	right_hippocampus	right_amygdala	right_accumbens_area	right_ventraldc	right_choroid_plexus	aircavity	skull	vermis	pons	csf_extracerebral	head_extracerebral	ctx_lh_bankssts	ctx_lh_caudalanteriorcingulate	ctx_lh_caudalmiddlefrontal	ctx_lh_cuneus	ctx_lh_entorhinal	ctx_lh_fusiform	ctx_lh_inferiorparietal	ctx_lh_inferiortemporal	ctx_lh_isthmuscingulate	ctx_lh_lateraloccipital	ctx_lh_lateralorbitofrontal	ctx_lh_lingual	ctx_lh_medialorbitofrontal	ctx_lh_middletemporal	ctx_lh_parahippocampal	ctx_lh_paracentral	ctx_lh_parsopercularis	ctx_lh_parsorbitalis	ctx_lh_parstriangularis	ctx_lh_pericalcarine	ctx_lh_postcentral	ctx_lh_posteriorcingulate	ctx_lh_precentral	ctx_lh_precuneus	ctx_lh_rostralanteriorcingulate	ctx_lh_rostralmiddlefrontal	ctx_lh_superiorfrontal	ctx_lh_superiorparietal	ctx_lh_superiortemporal	ctx_lh_supramarginal	ctx_lh_frontalpole	ctx_lh_temporalpole	ctx_lh_transversetemporal	ctx_lh_insula	ctx_rh_bankssts	ctx_rh_caudalanteriorcingulate	ctx_rh_caudalmiddlefrontal	ctx_rh_cuneus	ctx_rh_entorhinal	ctx_rh_fusiform	ctx_rh_inferiorparietal	ctx_rh_inferiortemporal	ctx_rh_isthmuscingulate	ctx_rh_lateraloccipital	ctx_rh_lateralorbitofrontal	ctx_rh_lingual	ctx_rh_medialorbitofrontal	ctx_rh_middletemporal	ctx_rh_parahippocampal	ctx_rh_paracentral	ctx_rh_parsopercularis	ctx_rh_parsorbitalis	ctx_rh_parstriangularis	ctx_rh_pericalcarine	ctx_rh_postcentral	ctx_rh_posteriorcingulate	ctx_rh_precentral	ctx_rh_precuneus	ctx_rh_rostralanteriorcingulate	ctx_rh_rostralmiddlefrontal	ctx_rh_superiorfrontal	ctx_rh_superiorparietal	ctx_rh_superiortemporal	ctx_rh_supramarginal	ctx_rh_frontalpole	ctx_rh_temporalpole	ctx_rh_transversetemporal	ctx_rh_insula	reference
0	30	99.97189331054688	80.29740142822266	107.8208389282227	75.63068389892578	112.4303436279297	46.93983459472656	99.38039398193359	99.27977752685547	94.94418334960938	148.8207702636719	201.1853637695312	66.85829925537109	97.484619140625	152.1222534179688	49.25411605834961	83.04249572753906	86.16349029541016	90.46672058105469	55.21387100219727	84.34590911865234	160.5008544921875	131.4222869873047	145.3969879150391	224.1724548339844	133.8884887695312	130.3793182373047	45.06827926635742	85.73681640625	67.78325653076172	88.43503570556641	143.1254730224609	111.899787902832	78.11209106445312	124.4338531494141	152.7984161376953	95.69391632080078	64.56007385253906	73.33898162841797	93.02413177490234	88.92422485351562	76.44713592529297	87.03945159912109	61.54238891601562	143.3128204345703	107.1451950073242	149.1026611328125	65.35091400146484	65.63782501220703	79.51571655273438	93.91666412353516	80.99796295166016	105.4393463134766	95.97807312011719	103.9967041015625	100.6395111083984	93.80727386474609	118.2619400024414	235.5168151855469	88.11471557617188	126.3563385009766	82.71044921875	172.33349609375	106.9678497314453	58.65095901489258	58.19050979614258	146.0145416259766	179.2505798339844	71.306396484375	202.1673736572266	62.99095916748047	82.26611328125	162.9762420654297	109.1109008789062	75.38166809082031	83.04487609863281	99.00131988525391	76.28164672851562	146.5646362304688	81.75232696533203	136.0075378417969	53.62495803833008	76.17169952392578	108.3678970336914	115.462043762207	76.03947448730469	147.5212860107422	67.00830841064453	105.4076232910156	104.6548080444336	104.9809646606445	87.86279296875	147.3988037109375	76.09254455566406	132.1459197998047	76.39109802246094	120.0665054321289	111.9270553588867	79.81841278076172	132.3377227783203	183.8858795166016	185.9523010253906	77.04052734375
30	60	7613.513671875	4385.6982421875	4547.53759765625	6292.7802734375	6119.025390625	5930.42724609375	7184.318359375	5103.5029296875	4784.1953125	6070.11083984375	6279.32275390625	4069.49951171875	5987.7412109375	5758.26611328125	4693.32958984375	4405.13916015625	4246.67919921875	6563.9072265625	6539.12353515625	5537.7099609375	6958.00732421875	4755.9677734375	5378.16015625	5596.18994140625	5773.88525390625	5599.56982421875	4931.6845703125	2908.47900390625	2343.24267578125	6600.75439453125	4904.84228515625	6787.6513671875	2291.69873046875	5810.3115234375	7030.03271484375	6893.56591796875	7152.5869140625	4504.63427734375	5524.68408203125	5907.2197265625	5472.0576171875	7290.42431640625	5883.9580078125	6932.4609375	7573.78662109375	7587.48046875	5802.0947265625	5942.12109375	6367.650390625	7537.501953125	6817.61767578125	7014.59765625	8193.98828125	6705.6953125	6629.71826171875	6700.744140625	6923.4375	8034.140625	6830.91357421875	7424.89404296875	5851.84521484375	7176.41650390625	6289.67822265625	7930.14013671875	4642.11328125	9054.8583984375	7728.4638671875	6954.62939453125	7211.6416015625	7135.18505859375	6755.2412109375	5017.8095703125	5631.6396484375	5891.2763671875	5279.07861328125	7130.0302734375	6008.34375	7335.63330078125	7173.4052734375	7215.66650390625	5844.470703125	5878.2734375	7000.22900390625	8120.0888671875	7000.34521484375	7231.04345703125	7785.85400390625	6468.25634765625	7312.62060546875	6513.97119140625	6301.1533203125	7732.1884765625	7035.20751953125	7312.2021484375	5636.0224609375	6848.29052734375	6755.20361328125	6919.34033203125	4906.9697265625	9824.0224609375	7636.86181640625	6764.57958984375
60	90	22782.798828125	13212.330078125	14420.361328125	18716.484375	18750.8046875	16382.5927734375	22086.828125	14727.8740234375	13520.03125	17527.7265625	16880.77734375	11514.1318359375	17110.13671875	15990.0703125	14791.75	13206.03515625	13634.5712890625	19275.83984375	19380.6484375	17014	20644.1171875	15575.2099609375	15436.33984375	13887.419921875	18823.947265625	15537.5693359375	13683.361328125	7017.224609375	6588.10009765625	19327.498046875	14547.4091796875	17563.486328125	6111.35791015625	19098.080078125	19776.095703125	20900.34765625	22224.83203125	14380.2744140625	16863.05859375	18201.693359375	16865.240234375	20415.6796875	18532.888671875	19945.013671875	21940.873046875	20487.08203125	17551.251953125	16513.408203125	19008.97265625	21746.498046875	19211.654296875	21068.794921875	24960.6484375	19449.10546875	21080.689453125	19802.32421875	21223.255859375	20475.974609375	21110.302734375	21032.67578125	18356.623046875	19588.169921875	19248.638671875	22290.625	13569.7783203125	24772.298828125	20242.62109375	20294.986328125	20352.455078125	21238.02734375	22203.9609375	12696.51171875	16709.490234375	18332.4765625	16531.06640625	20294.01953125	18945.87890625	19976.1328125	21162.447265625	20212.142578125	17043.1015625	16252.0068359375	20211.34375	22805.2265625	21427.455078125	21850.70703125	24777.646484375	19829.6171875	21122.46484375	19462.041015625	19886.298828125	20968.427734375	21316.611328125	21239.734375	17486.87890625	18818.720703125	20217.6953125	20103.423828125	15443.9912109375	25636.912109375	19727.482421875	20233.7734375
90	120	30845.935546875	17554.5546875	18891.55078125	24616.4296875	24804.611328125	23011.75390625	29019.69140625	22129.837890625	17129.802734375	20628.9375	18378.958984375	14290.884765625	23737.3046875	20193.10546875	20176.677734375	17538.748046875	19164.958984375	24171.853515625	24936.6796875	22569.74609375	29009.658203125	21741.84765625	18401.24609375	17506.392578125	22747.5234375	19448.51171875	17437.7890625	7656.7236328125	8187.64111328125	26144.783203125	19417.736328125	20260.873046875	7572.61865234375	24035.615234375	24499.205078125	27160.009765625	28814.298828125	19093.455078125	22385.185546875	24373.46875	22740.78125	26181.64453125	25276.91015625	25341.916015625	28545.31640625	26376.400390625	22868.96484375	21549.205078125	24671.728515625	27472.673828125	27151.59375	27409.833984375	34416.140625	25166.708984375	28097.7734375	25825.705078125	27284.912109375	25060.02734375	27330.896484375	26762.109375	24505.4296875	23945.0703125	24495.158203125	26822.431640625	19147.802734375	31037.638671875	24160.814453125	26229.876953125	26737.5703125	27852.654296875	29237	16555.021484375	22123.26953125	24427.296875	22079.9921875	26950.033203125	25266.708984375	25502.37890625	27690.5703125	25832.5546875	22884.1796875	20781.3046875	24771.251953125	28773.435546875	26051.84765625	27046.234375	33365.51953125	25242.939453125	28715.32421875	25972.322265625	27203.6953125	25217.091796875	27978.8359375	27253.99609375	23492.19140625	23565.55859375	25438.94140625	26843.654296875	17820.5390625	31657.45703125	24326.19140625	26193.5361328125
120	150	31684.134765625	17947.01171875	19139.064453125	25145.0390625	24993.310546875	23810.375	29859.28515625	22154.392578125	17108.306640625	20887.171875	18173.4140625	14509.3427734375	24068.66796875	20054.240234375	18746.515625	17934.990234375	18623.345703125	24318.36328125	25262.80859375	23380.66015625	29969.75390625	21669.51171875	19626.947265625	18670.01953125	26007.814453125	19941.068359375	17900.322265625	7337.94873046875	8322.296875	25721.470703125	19535.8359375	19610.546875	7772.740234375	24764.478515625	24703.9609375	27713.55078125	28930.74609375	18269.884765625	23544.744140625	24937.701171875	22842.69140625	25538.708984375	26076.1796875	25974.13671875	28570.345703125	25936.265625	23272.955078125	21253.224609375	25091.107421875	28180.419921875	25808.654296875	28025.490234375	34252.484375	25648.345703125	28203.6953125	26234.623046875	27617.55078125	23940.525390625	28230.216796875	26912.43359375	24619.904296875	24296.208984375	24869.974609375	28628.474609375	18535.78125	32370.849609375	24695.62109375	26031.541015625	26222.1171875	27841.7421875	29975.34375	16211.431640625	22110.638671875	25337.4921875	22511.7578125	26010.28125	25999.98828125	24803.94921875	27588.107421875	26234.43359375	23380.349609375	19838.69140625	25124.376953125	28999.40625	26741.40625	27062.65234375	34395.765625	25663.044921875	27427.576171875	26020.09375	27427.259765625	25149.1484375	28156.58203125	27228.041015625	24367.06640625	23606.51953125	25655.091796875	26603.908203125	17961.216796875	30482.779296875	24116.455078125	26716.8466796875
150	180	30138.3125	17918.05859375	19051.201171875	24510.408203125	23317.173828125	22826.296875	29369.919921875	21332.357421875	17033.845703125	19622.876953125	18233.251953125	14204.7724609375	25639.29296875	19889.58984375	19756.435546875	17864.671875	19459.193359375	23912.759765625	24745.576171875	22378.515625	27996.44921875	21679.169921875	18848.44140625	17872.775390625	23894.7890625	18019.71875	17240.259765625	7018.32763671875	8210.9326171875	24943.34375	19725.2578125	18836.146484375	7911.57568359375	23853.505859375	23168.322265625	27640.806640625	28503.09765625	18334.009765625	22978.896484375	25037.80078125	22631.7578125	25863.642578125	25602.744140625	24887.763671875	28640.53515625	25555.537109375	23046.296875	20634.064453125	24645.91796875	27258.232421875	25274.67578125	26526.072265625	33883.82421875	25005.494140625	27051.603515625	26077.337890625	26987.498046875	24348.013671875	27193.505859375	26034.15625	24661.646484375	23910.69921875	24116.583984375	27721.126953125	17920.4375	31725.8671875	24206.443359375	25032.27734375	25068.091796875	27490.236328125	29507.033203125	17612.32421875	22272.275390625	24427.267578125	22215.953125	25422.17578125	25782.36328125	24768.82421875	27731.83984375	25594.591796875	22596.20703125	19876.302734375	25592.91796875	28181.99609375	25998.4609375	26683.216796875	32347.16796875	25372.8828125	27984.615234375	25480.642578125	27244.294921875	25437.66015625	27655.39453125	26361	23731.150390625	23041.265625	24461.134765625	26564.9453125	18230.650390625	29774.46875	23500.90625	26129.5927734375
180	240	30203.83203125	17545.60546875	18764.603515625	24210.357421875	23904.392578125	22745.73828125	29263.791015625	21753.67578125	16836.68359375	19883.21875	18005.275390625	13795.8134765625	23533.33203125	19311.208984375	18225.876953125	17587.92578125	18814.09765625	23323.986328125	25057.634765625	22404.490234375	27450.484375	21091.388671875	19295.234375	18723.544921875	23761.330078125	19469.8203125	17513.7890625	6863.37744140625	8254.8857421875	24641.11328125	18980.150390625	18121.443359375	7897.1328125	23830.625	23447.76171875	26217.125	28032.2265625	18071.890625	22231.828125	24067.59765625	21988.15625	24287.7734375	25181.91796875	24867.916015625	27706.486328125	24241.94921875	22259.71484375	19282.68359375	24132.025390625	26392.197265625	24815.568359375	26626.361328125	33181.30078125	24329.388671875	26571.056640625	25214.94140625	26432.814453125	24249.966796875	26882.189453125	25465.677734375	23666.76171875	23294.103515625	23925.291015625	26783.8359375	18320.509765625	30442.1484375	23793.34765625	24675.953125	25391.14453125	26518.931640625	27940.859375	15815.6220703125	21936.01171875	23652.517578125	22050.083984375	24842.365234375	25080.78515625	24284.646484375	27588.9765625	25237.86328125	22387.716796875	19715.8125	23583.91796875	27253.322265625	24589.748046875	25449.974609375	31658.94140625	24513.646484375	26145.126953125	24606.412109375	25645.94921875	24016.34765625	26802.767578125	25660.892578125	22822.296875	22604.18359375	24457.359375	26625.53125	17599.58984375	28858.373046875	22963.84375	25696.0166015625
240	300	28549.2890625	17042.28515625	18353.55859375	23163.451171875	23585.8046875	21309.4296875	28045.4140625	20968.30859375	16467.5234375	19956.9375	16470.779296875	13270.25390625	23904.763671875	19173.564453125	18340.548828125	17148.173828125	18287.408203125	22339.703125	24046.880859375	20656.705078125	26018.26953125	22064.640625	18129.248046875	16958.103515625	23000.998046875	18698.001953125	17649.748046875	6676.96044921875	8210.3037109375	23564.865234375	18354.171875	17082.916015625	7850.96337890625	23116.056640625	22980.52734375	24486.962890625	26474.521484375	16906.935546875	21565.3203125	23030.46484375	21603.099609375	22483.724609375	24610.646484375	23436.904296875	26632.57421875	23852.736328125	21992.578125	19133.671875	21985.509765625	24866.44140625	24081.267578125	24780.177734375	31613.30078125	23312.197265625	25359.095703125	23511.72265625	24555.986328125	22742.294921875	25094.13671875	23811.197265625	22066.548828125	22603.638671875	22484.2578125	24542.365234375	18699.78515625	28581.1328125	22556.787109375	23815.640625	23561.951171875	25077.515625	27077.79296875	15326.146484375	20938.462890625	22740.5078125	21077.1796875	22905.56640625	24188.75390625	23103.357421875	26290.3125	24348.201171875	21521.365234375	19481.998046875	22307.888671875	25355.337890625	24429.142578125	24116.513671875	30637.79296875	23389.7265625	25036.90234375	23414.41015625	24406.23046875	23169.939453125	25409.921875	23942.31640625	22169.810546875	21859.21484375	23064.337890625	23745.6171875	16831.654296875	28538.421875	22569.611328125	24544.9482421875
300	360	27120.71484375	16676.2734375	17869.193359375	22134.01953125	22697.119140625	20340.375	25778.091796875	20482.93359375	16120.83203125	19957.33203125	16708.82421875	12841.6884765625	22279.7265625	19211.474609375	18715.873046875	16629.5390625	17842.494140625	21379.75390625	23650.279296875	19664.609375	25590.01171875	21149.775390625	18936.884765625	17356.033203125	22641.30078125	18298.8515625	17143.623046875	7009.09326171875	8258.6806640625	22628.9296875	18598.05078125	16189.814453125	7946.54443359375	21834.271484375	20893.029296875	22897.765625	25698.37890625	18012.83203125	21194.615234375	21757.169921875	20638.64453125	21727.28125	23427.87109375	22940.150390625	25978.052734375	22455.1875	20759.267578125	19716.41796875	20910.22265625	23522.36328125	23430.330078125	24207.318359375	29986.97265625	22180.12109375	23305.1953125	22805.5625	23771.046875	20962.91796875	23930.40234375	22155.056640625	21401.55859375	21619.544921875	21468.80859375	23210.5	17574.853515625	26906.3828125	22407.40625	22362.291015625	22503.41015625	23231.810546875	26275.47265625	15981.2734375	20473.796875	21611.85546875	20178.462890625	22510.376953125	23077.130859375	21701.6875	25228.966796875	23514.935546875	20512.46484375	18546.935546875	21416.404296875	24519.77734375	23237.615234375	23609.564453125	28624.91796875	22038.8046875	24070.77734375	21992.94140625	23699.9609375	22380.572265625	23901.396484375	22854.552734375	20787.400390625	21234.134765625	21875.359375	22713.212890625	17663.76171875	26075.7734375	21499.7734375	23417.943359375
360	480	26002.9453125	16235.4287109375	17552.06640625	21190.376953125	22308.904296875	19012.48828125	25482.453125	20473.951171875	15987.734375	19735.76953125	18128.38671875	12537.224609375	21608.994140625	18642.689453125	17401.232421875	16196.54296875	17585.09375	20591.791015625	23048.544921875	18544.52734375	24393.134765625	20432.734375	18368.568359375	16563.751953125	22075.75	18932.837890625	16826.634765625	7015.7255859375	8411.40625	21773.177734375	17996.66015625	15427.2294921875	8039.18359375	21359.58203125	20627.310546875	21818.375	24882.251953125	16541.556640625	20672.869140625	20747.263671875	19758.060546875	20550.896484375	22611.962890625	21275.86328125	25145.287109375	21657.798828125	19787.33203125	18446.310546875	20345.837890625	21996.8125	21576.685546875	22393.84765625	29294.7421875	21154.701171875	22497.623046875	21242.91015625	22167.232421875	20162.96484375	22522.0703125	20892.94921875	20386.013671875	20932.279296875	20460.18359375	22578.3671875	17830.212890625	26606.884765625	21239.62109375	21826.90625	21657.544921875	21580.166015625	24857.595703125	15427.087890625	19636.529296875	20596.111328125	19348.552734375	20860.75	22482.533203125	21204.94140625	24486.720703125	21855.48046875	19914.421875	18124.5703125	20636.4375	22668.640625	22333.037109375	22040.326171875	28389.625	21062.01953125	23069.333984375	20775.5078125	22439.8984375	21208.638671875	22541.009765625	21203.044921875	19908.6796875	20201.662109375	20529.013671875	22400.509765625	16444.015625	25977.76171875	20652.4921875	22397.8955078125
480	600	24091.7734375	15650.017578125	16990.244140625	20059.89453125	21355.57421875	17581.318359375	23271.97265625	20530.861328125	15503.2666015625	19464.900390625	16705.734375	12186.9873046875	20996.921875	18237.111328125	17226.4765625	15581.8984375	16986.767578125	19190.646484375	22270.359375	17378.009765625	22942.3828125	19563.791015625	18157.802734375	17051.251953125	21261.083984375	18512.537109375	17103.705078125	6875.03564453125	8471.1943359375	20027.439453125	17470.705078125	14515.1728515625	8198.0654296875	19954.8046875	19386.0078125	19834.69921875	23994.328125	16112.0625	19354.95703125	19432.87890625	18849.654296875	18945.8984375	21434.1015625	20210.3046875	24079.544921875	19842.779296875	18562.28125	17341.130859375	18626.3671875	20223.07421875	20747.89453125	20449.9140625	28361.212890625	19827.396484375	20843.8515625	19708.763671875	20853.15625	19646.6796875	20958.296875	19365.01171875	19037.876953125	19587.5546875	19074.96484375	21658.3828125	16523.73828125	24657.548828125	20297.740234375	20098.12109375	20511.6640625	19714.03515625	23793.443359375	14424.0654296875	18768.62890625	19312.125	18531.982421875	19698.625	21573.04296875	19519.35546875	23687.3125	20804.69140625	18904.6171875	17191.546875	19144.345703125	20730.6484375	20446.0546875	20121.119140625	27298.4453125	19671.87890625	21115.80078125	19638.62890625	20806.90625	20337.03125	21123.81640625	19613.1953125	18496.072265625	19091.189453125	19439.88671875	19465.21484375	16055.40234375	24584.126953125	19665.845703125	20939.3330078125
600	900	21372.9296875	14959.767578125	16236.7646484375	18218.52734375	20131.3359375	15597.5078125	21077.025390625	18870.15625	15381.318359375	19198.265625	16262.1923828125	11610.1337890625	19265.83984375	17729.89453125	16648.5234375	14818.330078125	16093.642578125	17641.048828125	20229.16015625	15306.4658203125	20564.859375	18039.173828125	18240.423828125	16438.28515625	18756.744140625	17992.265625	16687.7265625	6789.6015625	8654.9580078125	18416.1875	17264.7421875	13371.7236328125	8347.98828125	18040.005859375	17603.044921875	17621.748046875	22258.685546875	15774.5185546875	18021.671875	17680.732421875	17470.693359375	17350.724609375	20121.6796875	18418.279296875	22552.240234375	18146.5625	16992.0859375	16520.681640625	16938.041015625	18137.94140625	18431.3125	18831.953125	26613.31640625	18436.130859375	18824.470703125	18000.162109375	18807.884765625	17303.927734375	18797.095703125	17271.79296875	17489.515625	18094.72265625	17357.63671875	19620.19921875	16247.5595703125	22562.015625	18520.48828125	18491.052734375	18746.4140625	17525.74609375	22047.705078125	14328.166015625	17318.87890625	17742.041015625	16816.9609375	18073.921875	20056.6015625	18060.15625	22099.7265625	18797.5234375	17217.330078125	16007.791015625	17515.28125	18600.970703125	18778.2421875	18690.099609375	26258.556640625	18424.9375	19043.68359375	17547.533203125	18844.04296875	18388.662109375	18808.890625	17557.978515625	17123.119140625	17482.59375	17401.408203125	17975.896484375	15851.875	21825.208984375	17827.81640625	18994.6337890625
900	1200	18921.55078125	14312.22265625	15242.74609375	16408.546875	18573.2578125	14051.02734375	19055.271484375	18133.693359375	15026.0576171875	18963.568359375	15574.9033203125	10974.5732421875	17789.294921875	17394.4296875	15550.9501953125	14119.9443359375	15347.185546875	15809.509765625	19287.0625	13188.666015625	18312.99609375	17362.607421875	17836.81640625	15209.8583984375	16693.1015625	17617.94921875	16232.5654296875	7152.7099609375	8880.4453125	16490.705078125	16613.626953125	12154.8818359375	8612.71875	16139.30859375	16006.716796875	15376.0048828125	20540.400390625	14816.9921875	16512.634765625	15825.1826171875	15896.3759765625	15306.8984375	18542.220703125	16749.345703125	21088.009765625	16373.734375	15224.5126953125	15478.2158203125	15370.4462890625	16190.4892578125	16731.75390625	16710.88671875	24508.28515625	16396.212890625	16661.82421875	15975.755859375	16835.66015625	15675.640625	16495.83984375	15160.486328125	15598.6171875	16511.333984375	15468.3525390625	17333.26953125	15197.5556640625	20746.98046875	17015.853515625	16677.822265625	16820.689453125	15262.04296875	20096.2890625	13464.25390625	15770.673828125	15964.111328125	15186.9775390625	16271.775390625	18691.630859375	16073.3935546875	20707.291015625	16606.685546875	15483.7705078125	15342.955078125	15554.1435546875	16500.216796875	17088.818359375	16424.22265625	24510.72265625	16616.74609375	16632.109375	15646.587890625	17059.3125	16659.890625	16677.87890625	15246.7255859375	15163.3076171875	16197.8310546875	15470.4619140625	15849.57421875	14247.203125	19787.2734375	16117.1474609375	16873.21484375
1200	1500	17026.767578125	13648.5146484375	14397.5732421875	14784.12890625	17296.34375	13010.41796875	17218.109375	17025.427734375	14193.806640625	18238.083984375	15218.783203125	10411.212890625	15349.5546875	16552.388671875	14666.4814453125	13422.30078125	14573.9287109375	14319.9814453125	17777.71484375	11777.21875	16791.21484375	15895.65234375	17646.109375	14985.7568359375	15622.0654296875	17141.50390625	15454.0908203125	7329.466796875	8997.8525390625	14870.765625	16147.650390625	11193.3330078125	8735.0771484375	14716.4638671875	14717.10546875	13798.54296875	18450.76171875	13738.9296875	15200.48828125	14179.4072265625	14302.4541015625	14140.5751953125	17100.638671875	15054.099609375	19662.681640625	14641.3330078125	13713.357421875	14522.4658203125	14074.2255859375	14440.5546875	15261.94921875	15246.87109375	22604.150390625	14768.4375	15125.673828125	14459.78515625	15247.7080078125	14289.61328125	14584.828125	13479.5068359375	14077.16015625	15043.7060546875	13890.8759765625	15844.4990234375	14085.8447265625	18457.720703125	15711.1142578125	15256.98828125	15119.9892578125	13486.291015625	18161.6875	12174.404296875	14714.126953125	14570.130859375	14070.2744140625	14226.310546875	17248.884765625	14654.24609375	19325.033203125	15068.6240234375	14399.4150390625	13886.525390625	14241.8837890625	14760.7822265625	15633.24609375	15246.9580078125	22431.189453125	14954.4365234375	15203.044921875	14181.640625	15224.0068359375	14522.5361328125	14998.7646484375	13533.4794921875	13785.4462890625	14685.3505859375	13950.44921875	14163.8359375	13079.8271484375	17988.193359375	14956.7470703125	15079.12646484375
1500	1800	15161.7724609375	12966.3037109375	13769.958984375	13592.9541015625	15927.0185546875	11469.2841796875	15568.5263671875	15564.0634765625	13610.6494140625	17732.486328125	14709.8505859375	9952.2763671875	14718.1552734375	15853.7783203125	13388.9189453125	12815.224609375	13613.9931640625	13090.4248046875	16307.103515625	10972.3681640625	15121.1474609375	15389.2529296875	16275.4296875	13762.27734375	13611.05078125	16030.015625	13925.080078125	7337.0966796875	9024.36328125	13504.359375	15475.44140625	10416.8427734375	8802.0654296875	13388.322265625	13188.884765625	12279.814453125	17277.70703125	12929.52734375	14103.376953125	12893.8583984375	13231.43359375	12868.806640625	15915.7431640625	13889.4091796875	18387.974609375	13501.837890625	12566.01953125	13599.0771484375	13049.119140625	13145.9375	14021.48046875	14063.986328125	20831.69140625	13408.390625	13675.3212890625	13360.326171875	13870.4677734375	12864.8583984375	13266.8564453125	12140.357421875	12774.544921875	13949.451171875	12721.34765625	14090.787109375	13342.1806640625	16843.138671875	14491.669921875	13712.283203125	13792.033203125	12180.466796875	16742.32421875	11667.5517578125	13593.341796875	13333.6083984375	12866.6279296875	13134.283203125	16154.7998046875	13672.2373046875	17974.16015625	13831.7490234375	13062.17578125	13559.1943359375	12923.7275390625	13247.0498046875	14504.51171875	13812.5205078125	21341.37890625	13670.1630859375	13571.6435546875	13042.0693359375	13783.4873046875	13333.927734375	13497.873046875	12155.662109375	12476.181640625	13589.646484375	12724.8349609375	12985.4140625	12318.3125	16110.251953125	13947.376953125	13692.56396484375
1800	2100	14111.4208984375	12656.1748046875	13445.3125	12796.806640625	15375.6689453125	10790.396484375	14638.6796875	15038.3505859375	13281.8154296875	17442.701171875	14154.27734375	9781.7919921875	14113.5205078125	15484.638671875	13529.369140625	12462.8173828125	13198.44140625	12494.939453125	15685.36328125	10180.404296875	14155.7890625	14773.2939453125	16006.3828125	13200.9677734375	13517.9228515625	15846.36328125	13638.4677734375	7559.2275390625	9159.5380859375	12670.7275390625	15168.548828125	10102.0234375	9036.9921875	12730.478515625	12420.98046875	11490.4228515625	16771.486328125	12850.5244140625	13490.0791015625	12116.31640625	12921.705078125	12190.3671875	15164.9453125	13554.830078125	17751.986328125	13136.7216796875	11813.96484375	13200.9248046875	12018.75	12471.1611328125	13392.3876953125	13078.4521484375	19955.90234375	12749.94921875	12579.251953125	12498.1044921875	13142.6669921875	12287.150390625	12505.6162109375	11444.7314453125	12060.7177734375	13159.6201171875	11905.2470703125	13505.9296875	12959.775390625	15649.4794921875	14027.5419921875	13247.2822265625	12780.27734375	11802.8837890625	16152.3798828125	11178.6240234375	13044.05078125	12506.2734375	12384.2080078125	12295.095703125	15386.4072265625	13174.65625	17395.970703125	13029.474609375	12592.27734375	12859.0517578125	12374.072265625	12621.8564453125	13712.15234375	13258.30078125	20058.0234375	13064.658203125	12632.7353515625	12267.6748046875	13427.2548828125	12407.5498046875	12847.451171875	11424.0322265625	11863.6083984375	12733.78125	12093.3916015625	12004.5146484375	11783.7041015625	15110.9521484375	13321.984375	12861.408203125
2100	2400	13116.4755859375	12143.072265625	12409.6728515625	11945.140625	14521.810546875	10409.029296875	13752.08203125	14879.6474609375	12842.037109375	16597.04296875	13385.2626953125	9507.8681640625	12731.4072265625	15077.193359375	11623.9287109375	11989.7900390625	12387.9140625	11590.888671875	14263.0517578125	9752.1845703125	13424.115234375	14014.9150390625	15637.2470703125	13063.3564453125	12666.216796875	15497.92578125	12570.6943359375	7385.31591796875	9252.509765625	11749.93359375	14358.77734375	9627.5302734375	9028.744140625	11990.4716796875	11923.93359375	10866.685546875	15290.068359375	11774.8232421875	12960.8896484375	11567.5869140625	11957.8447265625	11442.216796875	14358.4765625	12473.1728515625	16495.2421875	12214.892578125	11243.9814453125	12885.4658203125	11362.0166015625	11873.572265625	12530.025390625	12519.0703125	18656.322265625	12148.3994140625	11977.9072265625	11814.599609375	12311.646484375	11786.654296875	11661.7578125	10681.2265625	11187.4091796875	12229.4775390625	11121.6513671875	12744.5791015625	12144.1767578125	15022.5205078125	13045.2138671875	12209.5205078125	12010.515625	10751.607421875	14434.4248046875	11147.42578125	12160.4189453125	11745.8447265625	11631.755859375	11463.0791015625	14358.3115234375	12474.4619140625	16438.697265625	12121.8623046875	11430.9453125	12622.8974609375	11209.0546875	11825.5654296875	12473.2216796875	12180.3818359375	19096.201171875	12160.306640625	11920.9990234375	11478.5498046875	12207.9287109375	11429.556640625	11769.4296875	10591.1416015625	11168.4736328125	11788.8173828125	11248.4755859375	10558.767578125	10541.9248046875	14748.130859375	12429.291015625	11893.56005859375
