time	whole_blood_radioactivity
0.0	475.00565482922417
1.061	543.1901182949316
2.123	520.8705881632656
3.194	487.196381353176
4.256	453.47878007338073
5.327	363.00328207652944
6.389	635.6381871554959
7.459999999999999	511.0907985820571
8.521999999999998	613.6781891793732
9.593	614.0507742579657
10.655	512.0170431124365
11.726	694.4889395455747
12.788	592.3797745953216
13.85	763.7180608851263
14.921	923.8615069496653
15.993	1004.3113409651176
17.054000000000002	936.3984388803781
18.126	1016.9525190742888
19.187	1040.4307899095534
20.259	1098.2643282086437
21.32	938.6650139510297
22.392000000000003	1351.5827091555882
23.453000000000003	1134.6370176089613
24.515	986.2376661330247
25.586	1090.1100262870607
26.648	1550.0363297137842
27.719	1769.2631194845665
28.781	1896.7802896824635
29.853	2381.04317507824
30.914000000000005	3372.2959365297606
31.986	4330.217840589604
33.047000000000004	4597.8619721740515
34.109	5822.852540035044
35.17999999999999	7545.46062767791
36.242	9697.251851645411
37.313	10373.11805775429
38.375	11951.29324731684
39.446	13161.343413009583
40.508	15391.146783485634
41.57899999999999	16836.32655355302
42.641	18387.438825311725
43.712	20091.227524098373
44.774	21773.76652453962
45.846	23330.77620075185
46.907	23844.225124739332
47.969	24021.278631621295
49.04	26047.572623802236
50.102	27471.135199451295
51.173	27348.10452171009
52.235	29216.832208835607
53.296	30073.670291516282
54.368	31433.253776901278
55.429	33226.08488977553
56.501	32697.426763189666
57.562000000000005	35077.397652049156
58.634	35928.83039370777
59.695	38442.286615128476
60.767	36791.701705800515
61.82900000000001	38219.40733677362
62.9	38758.29504332156
63.962	39367.98537905421
65.023	40224.791030332264
66.095	42714.91232265237
67.15599999999999	41941.714003140594
68.228	42366.8896782094
69.28900000000002	43062.83941615798
70.361	43889.35090800518
71.422	44928.554981011686
72.48400000000001	44166.08161826428
73.555	47423.64705587508
74.61699999999999	47393.20675435027
75.68799999999999	45509.518538182376
76.75	47001.65795836792
77.812	47136.33027469404
78.88300000000001	47649.843764526304
79.945	49773.119638117125
81.006	49791.21541001514
82.078	50994.44051636387
83.139	49780.30774778389
84.211	50735.83285597506
85.272	49911.73625125097
86.34400000000001	48956.29083992715
87.40500000000002	49366.023406477456
88.477	50050.03892007589
89.538	48093.11826745985
90.61	46157.92422243594
91.671	45173.103781468184
92.743	45474.715025727055
93.805	44082.760888176985
94.876	41639.105216432836
95.938	42094.07012652667
96.999	41223.23098808694
98.071	39598.35110551438
99.132	38617.25801801697
100.204	37599.29357785066
101.265	36555.894235881045
102.337	36805.823613345536
103.398	35029.135144161984
104.46	36262.162344981996
105.531	35863.94464732664
106.593	33723.03284939137
107.654	32180.568940083875
108.726	31670.873899614628
109.798	32953.87370717499
110.859	31239.504357046128
111.921	32728.440260614265
112.992	30782.92986809024
114.064	28521.374520288195
115.125	28767.899673643413
116.197	29026.971406957688
117.258	28029.144132520447
118.32	27151.061502121433
119.391	27881.525889525463
120.453	26917.511415677698
121.524	27333.68175174437
122.586	26816.7128029842
123.657	26347.768215192766
124.719	26108.733404245646
125.791	25893.83849217859
126.852	23527.496708137638
127.924	24417.315679192765
128.985	24261.659167165435
130.04699999999997	23789.279165701984
131.118	23803.72245308599
132.18	23220.773294060313
133.251	23027.52611275122
134.313	22382.36660281523
135.384	22640.186410943086
136.456	21969.683333127403
137.517	22533.081048887976
138.589	21702.646686867745
139.65	21446.395982820213
140.71200000000002	21202.08964831468
141.784	20430.596169693148
142.845	21767.31845694876
143.91699999999997	19866.31254127397
144.97799999999998	20664.060500063697
146.05	20430.906632936647
147.11100000000002	19558.10184982588
148.173	19016.360125680603
149.244	18830.98032574598
150.306	18608.327596386145
151.37699999999998	18903.047840801457
152.439	18606.17466698493
153.50999999999996	18321.368193541042
154.572	18739.784848577725
155.633	17182.291900026634
156.705	18490.531609516034
157.76600000000002	18279.03952200665
158.838	17584.776663688725
159.9	17682.039907007533
160.971	17791.89446919494
162.03300000000002	18075.34760823219
163.09400000000002	17528.002630177645
164.166	16843.562667771992
165.237	17499.623185073167
166.29899999999998	17659.286887488182
167.36	16774.599794408423
168.432	17742.85832125821
169.49300000000002	16819.78894793989
170.565	17216.191201138925
171.626	17201.61623732477
172.69799999999998	16812.94922647302
173.759	16885.461685976832
174.83100000000002	17495.127811226263
176.66400000000002	17575.813836414254
177.735	18587.138184764226
178.797	18535.749721058615
179.858	17532.516963833274
180.93	18332.614215637266
181.991	16412.73107961425
183.063	17075.09676578127
184.124	17499.633610164892
185.186	16480.158991560016
186.257	17168.875706888066
187.319	16034.769524879055
188.391	17151.89993187213
189.452	16054.164069471093
190.514	17096.953870262434
191.585	16388.750348287114
192.657	15894.134127555693
193.718	16004.669707065115
194.78	15117.604967124631
195.851	15606.998729166038
196.913	16172.768196662697
197.984	15549.960685463748
199.046	16027.747727184324
200.117	16240.164077705582
201.179	15413.360722666412
202.25	15765.163937010804
203.312	15876.18139104977
204.384	15758.84432114865
205.445	15183.840145111872
206.517	15472.772391660115
207.578	15240.36999711771
208.65	15147.797656847853
209.711	15233.329895351371
210.783	14911.226619094223
211.844	14716.158324081503
212.906	16077.575875044797
213.977	14797.796607437584
215.039	14985.561138890582
216.11	15915.047687056123
217.172	15080.431833994704
218.243	14564.843750193128
219.305	14509.580546481053
220.367	14889.923136869233
221.438	14834.854183460318
222.5	14933.592047574515
223.571	15635.874870825775
224.633	14527.76756696046
225.704	14536.587872971251
226.766	14982.59976899527
227.837	14940.22258414973
228.899	14923.464746357258
229.96	14558.807555068874
231.032	14528.979772039196
232.103	14795.791955352617
233.165	14778.884831779751
234.226	14787.773795159994
235.29800000000003	14305.68882301093
236.359	14508.253788291757
237.431	14737.026087074375
238.493	13606.618999469429
239.564	13498.29210890679
240.626	13324.95030169166
241.697	13657.287425967821
242.759	14223.550283785247
243.83	14517.868452514685
244.892	14500.621878867614
245.953	15445.43015311731
247.02499999999995	15246.670687101228
248.086	14943.43470623392
249.15800000000004	14340.348390979812
250.21900000000005	13527.91515625216
251.29100000000005	14748.911287372366
252.35200000000003	14901.315029516581
253.414	14831.948324841684
254.486	14292.264191614053
255.547	14745.31134417206
256.619	13276.228875232548
257.67999999999995	14213.454633944599
258.742	13776.755223826329
259.813	14256.85369406599
260.875	14685.008428440602
261.936	14378.972908670077
263.00800000000004	14532.113239289716
264.069	14356.958608767218
265.131	13971.303625086317
266.202	14716.256469047878
267.264	14356.659226581765
268.325	15142.15249500893
269.39700000000005	14558.475316374881
270.459	14659.521125032286
271.53000000000003	14760.758608365153
272.592	14756.446071769024
273.663	14910.682011853693
274.725	14761.079512593347
275.78599999999994	15126.975546219612
276.858	14964.16631811295
277.9189999999999	14840.777979577077
278.99100000000004	13525.104792215589
280.052	13453.71033021198
281.124	13342.519689922892
282.185	13682.317712160644
283.247	13756.94943238882
284.318	12649.196201113038
285.38	13321.559905037378
286.452	12704.41211628278
287.513	12751.986511454716
288.58500000000004	13732.033115059754
289.646	13047.28059549156
290.708	12308.365709691869
291.77900000000005	13823.62809119421
293.642	14038.591088328414
294.713	14287.692951491446
295.775	15259.188137343779
296.846	15228.307590522145
297.908	14675.108215062457
298.97	14616.954290722439
300.041	14424.740357173629
301.103	14352.940715393315
302.17400000000004	14160.323267586124
303.236	15055.240618672877
304.307	14835.929360856073
305.369	14333.896627127811
306.42999999999995	14355.97246588651
307.502	14647.413225426952
308.563	14534.985973677969
309.635	14409.029109184494
310.696	14147.953884965182
311.76800000000003	13859.655395035958
312.829	14016.528871760542
313.901	14795.208261335803
314.963	13817.174403531837
316.024	14555.990007694327
317.096	14077.536366827628
318.157	14641.317093839167
319.229	15110.998451414265
320.29	14659.026215059906
321.362	14749.347667811851
322.423	14513.832536696758
323.49500000000006	14617.749495789363
324.55600000000004	14313.892419924783
325.618	14648.948794332193
326.689	15978.001205973222
327.751	15102.44555736126
328.822	14634.692753001833
329.884	14493.523273680572
330.956	15511.900616644258
332.017	14483.751557300517
333.079	14137.330550947469
334.15	15075.307180296084
335.212	14427.945642215076
336.2830000000001	14874.595931511489
337.345	14281.088854550844
338.41600000000005	15481.714395592477
339.478	14970.097408828708
340.54900000000004	14622.538976352807
341.611	14562.714886537682
342.682	14818.764718827386
343.744	14332.971800405077
344.815	14644.182779265417
345.877	14955.690088033232
346.939	15102.363550909215
348.01	15015.105431265125
349.072	13645.783061726403
350.143	15033.266660922278
351.20500000000004	14904.314240793052
352.27599999999995	15893.778702358884
353.338	15032.877327818365
354.399	15014.268471971278
355.47100000000006	14815.887239798294
356.53200000000004	15336.9530273895
357.60400000000004	15540.179295095148
358.665	13914.192739830989
359.737	14366.398163903663
360.798	15443.454094661618
361.86	15064.003063482583
362.932	15476.034498780784
364.003	15346.423074785094
365.065	14423.751441648432
366.136	15852.09960533461
367.198	14357.641784262218
368.259	15188.401891263482
369.331	14416.836136201404
370.39200000000005	14913.798207840531
371.454	15090.291573738776
372.525	15211.197743409104
373.587	14815.038268211869
374.658	14935.912480354002
375.72	14119.296347269345
376.781	14603.848861794975
377.853	15033.03208663192
378.914	14032.726919181328
379.976	14924.885370968936
381.048	15172.56167186272
382.109	15588.966728513644
383.181	14867.702427329625
384.242	14890.70591222911
385.314	15110.799703037155
386.375	14810.169918844784
387.437	15593.84820308757
388.508	14870.368681298645
389.57	15274.222514318479
390.641	14958.915770873591
391.703	15052.645582811538
392.774	15245.46485978522
393.836	14293.27541541641
394.897	15419.427111325704
395.969	14805.983673366267
397.03100000000006	15225.635402848557
398.102	14908.923848925584
399.164	15229.87076213711
400.235	15735.736619218369
401.297	15773.605346431388
402.36800000000005	15371.199793737042
403.43	15479.95758901521
404.491	15332.810967469652
405.563	15641.001375274747
406.634	15764.422932696543
407.696	15374.934756332628
408.767	15812.006276110033
409.829	15222.333458463263
410.89	14974.5380580878
411.9620000000001	14483.707377204868
413.024	15707.275433524565
414.095	15459.393648604702
415.157	15998.156669643797
416.228	14375.582449116548
417.29	15258.179678271894
418.351	15009.317084854538
419.423	14645.487555735985
420.484	15271.470369992934
421.556	15639.79106214497
422.617	14513.948400094132
423.679	16032.47045750223
424.75	14991.907535158416
425.822	16800.56445944623
426.883	14707.535087410128
427.945	16618.998106151226
429.017	14941.669560853472
430.078	14907.363026685804
431.15	15522.89827716763
432.211	15893.449499000079
433.273	16437.937536219568
434.344	15941.605245626939
435.406	14995.867401018515
436.477	15598.798014763606
437.539	16057.449749760235
438.61	14762.101404606085
439.672	15917.263794472985
440.743	16086.632547061006
441.805	15980.09829855583
442.866	16440.32884118945
443.9380000000001	15126.730713900994
445.0	15339.589129919206
446.071	15348.902320647378
447.133	15838.995501872967
448.204	15673.650222438197
449.266	16033.220261010609
450.337	15064.903662892273
451.399	16023.399805366213
452.47	15828.51212249311
453.532	15370.066005860628
454.593	15496.37475293621
455.665	15783.988376548241
456.72600000000006	15764.180422668316
457.798	15260.673336739123
458.859	15621.894777651307
459.931	16688.158132460754
460.993	16228.246643753617
462.054	15503.255882106514
463.126	16365.50688053477
464.187	16537.190976509035
465.259	15354.779357549394
466.32	15702.818476362781
467.392	15181.737273456316
468.453	15751.30834811262
469.515	17192.24874135428
470.586	15091.112320753069
471.648	16134.45774712467
472.719	15316.343092426876
473.781	16375.868099371948
474.852	15127.640723145025
475.914	16306.809764821786
476.9860000000001	15368.24528099974
478.047	15896.497503761395
479.119	15564.887649640319
480.18	15366.394750237901
481.242	16653.235685103005
482.3130000000001	15459.304454186584
483.375	15810.705722841547
484.4360000000001	16073.219672815225
485.5079999999999	16127.662355225533
486.569	16360.87173610552
487.641	15863.885585372123
488.70200000000006	15813.752599255788
489.774	17017.57868636601
490.835	16878.447352202784
491.907	16081.633577497705
492.968	16240.85355144724
494.04	16325.542307532718
495.102	15931.104048699888
496.17300000000006	15641.137714883145
497.235	17254.5860535156
498.306	15750.05647245097
499.36800000000005	16119.756514163015
500.439	15408.669924510185
501.501	15733.518421058508
502.5619999999999	15848.23549787416
503.634	16760.591339871622
504.695	16620.12759386229
505.76700000000005	15771.601782954589
506.828	16534.721441315633
507.9	16424.11495866118
508.961	16569.81159614801
510.023	15945.587625206843
511.095	17043.13762914424
512.1560000000001	16992.91544976781
513.228	15838.429221312135
514.289	16725.87467598849
515.361	16145.355282896156
516.422	15624.646509097394
517.494	16346.852255090864
518.5550000000001	15431.120525996299
519.617	15607.415959474356
520.688	16513.191964904243
521.75	16447.130041447923
522.821	15088.22433732673
523.8829999999999	15797.384691274221
524.954	15928.802228669205
526.0160000000001	15664.117428486772
527.0880000000001	16070.051465726454
528.149	16293.299598022779
529.2210000000001	16410.057245041688
530.282	14770.297394049441
531.344	15650.351724499416
532.415	15904.538802199848
533.4770000000001	16388.476832595505
534.548	16061.57773495652
535.61	15351.181881790677
536.6709999999999	16142.23259414623
537.743	15569.157535225202
538.804	16146.408821251567
539.8760000000001	15434.412662464914
540.9370000000001	16427.175044089687
542.009	15837.486058473161
543.071	15877.79162683118
544.132	15779.578567223936
545.204	16266.693890265284
546.265	15259.197859546779
547.337	16008.760392752822
548.398	16080.116977959273
549.4699999999999	15719.296436528351
550.531	15682.399104855307
551.603	16325.790504461273
552.664	15747.775429238565
553.7359999999999	15432.292080201945
554.797	15116.325243015783
555.859	16210.241106782687
556.9300000000001	14995.047958397896
557.992	14988.559332100656
559.054	16146.466069023176
560.115	14369.677177127447
561.187	14393.953876123309
562.2479999999999	15195.843690267917
563.32	15407.397587387044
564.381	15276.513082234165
565.453	15971.398120278942
566.5139999999999	15544.450072344502
567.586	16942.358626854522
568.6469999999999	15688.13221499692
569.719	16197.492092627474
570.7800000000001	16441.66873700634
571.842	16529.758986911384
572.913	16195.54171007996
573.975	15766.88789220917
575.047	15807.803055084278
576.108	15644.872402099947
577.1700000000001	15215.092549285024
578.241	16856.629469335043
579.303	15406.24665130225
580.374	14331.322614305262
581.446	15770.890212575323
582.5070000000001	16787.29911457275
583.569	14703.633380491414
584.64	13641.410448544155
585.7020000000001	15005.12828389762
586.773	15392.748624040307
587.835	15070.619706748506
588.906	14337.62386806053
589.9680000000001	14472.654286577023
591.029	14955.639382057385
592.1010000000001	14458.521502338379
593.163	14388.083603503619
594.234	14808.609307943436
595.2959999999999	15039.391224512125
596.367	15587.66836476633
597.429	15612.91940919111
598.5	14225.273474699428
599.5619999999999	15854.207424520693
601.444	17286.486743941576
602.5060000000001	16564.918477208892
603.568	16367.903955996157
604.639	16584.954253187534
605.711	16563.15008412045
606.772	15951.022346830505
607.844	16423.57656312565
608.9050000000001	16625.098536109577
609.967	17657.822891411884
611.038	16197.497400608956
612.11	16463.330227445542
613.1709999999999	16169.061853152567
614.243	16098.79430998342
615.3040000000001	16076.420480110744
616.366	16615.35248617737
617.437	15646.529180197344
618.509	16169.876779921256
619.571	16613.424365651776
620.642	15707.127846905689
621.704	16569.172509977718
622.775	16096.34196403126
623.837	16557.001366424
624.908	17018.296397386195
625.97	16609.278592808594
627.031	16038.400835767465
628.1030000000001	16354.90272622637
629.164	16510.132160500085
630.2360000000001	16342.355390941993
631.297	17031.50397191918
632.3690000000001	16362.121970054768
633.4300000000001	16404.350855272587
634.492	16187.37665637786
635.564	16245.854028692316
636.625	15606.6981623386
637.6969999999999	15405.152882479293
638.758	15576.846537330135
639.8299999999999	15537.554591637603
640.8910000000001	15433.062734450812
